TimeStamp,ECG Data,EMG Data,EDA Data,label
0,512,508,584.0,1
1,519,511,583.0,1
2,518,513,581.0,1
3,510,513,580.0,1
4,502,513,580.0,1
5,496,512,579.0,1
6,496,512,580.0,1
7,500,512,582.0,1
8,508,513,583.0,1
9,506,513,580.0,1
10,495,510,579.0,1
11,489,506,578.0,1
12,489,504,579.0,1
13,507,507,581.0,1
14,504,507,580.0,1
15,491,501,578.0,1
16,487,501,577.0,1
17,496,506,577.0,1
18,501,505,579.0,1
19,503,503,580.0,1
20,507,507,577.0,1
21,508,509,576.0,1
22,507,509,575.0,1
23,508,506,577.0,1
24,525,508,579.0,1
25,532,509,576.0,1
26,522,509,575.0,1
27,509,506,574.0,1
28,508,507,575.0,1
29,518,508,577.0,1
30,521,509,576.0,1
31,511,507,574.0,1
32,495,506,574.0,1
33,494,508,573.0,1
34,500,508,576.0,1
35,502,510,576.0,1
36,496,507,574.0,1
37,495,512,573.0,1
38,486,513,572.0,1
39,489,512,574.0,1
40,497,509,575.0,1
41,493,507,573.0,1
42,485,506,572.0,1
43,476,504,571.0,1
44,478,503,572.0,1
45,489,502,574.0,1
46,494,505,573.0,1
47,497,511,571.0,1
48,491,510,570.0,1
49,495,509,570.0,1
50,519,511,573.0,1
51,548,511,573.0,1
52,572,509,571.0,1
53,600,508,569.0,1
54,633,510,569.0,1
55,671,512,571.0,1
56,718,512,572.0,1
57,730,508,570.0,1
58,696,512,569.0,1
59,628,514,568.0,1
60,568,514,569.0,1
61,520,506,571.0,1
62,479,506,570.0,1
63,456,512,568.0,1
64,447,513,567.0,1
65,442,510,567.0,1
66,453,509,570.0,1
67,464,512,570.0,1
68,461,512,568.0,1
69,451,511,567.0,1
70,436,507,566.0,1
71,443,509,568.0,1
72,463,512,569.0,1
73,470,513,567.0,1
74,466,511,566.0,1
75,456,512,565.0,1
76,448,508,566.0,1
77,462,508,568.0,1
78,473,506,567.0,1
79,479,509,565.0,1
80,471,511,564.0,1
81,464,512,564.0,1
82,473,512,566.0,1
83,487,511,567.0,1
84,489,511,565.0,1
85,485,513,563.0,1
86,475,513,563.0,1
87,475,508,564.0,1
88,498,511,566.0,1
89,506,512,564.0,1
90,503,512,563.0,1
91,484,511,562.0,1
92,482,511,563.0,1
93,498,511,565.0,1
94,509,511,564.0,1
95,506,509,562.0,1
96,499,511,561.0,1
97,493,510,561.0,1
98,503,512,563.0,1
99,513,510,564.0,1
100,516,508,562.0,1
101,512,511,560.0,1
102,500,513,560.0,1
103,501,512,561.0,1
104,511,506,563.0,1
105,522,507,561.0,1
106,523,511,560.0,1
107,512,510,559.0,1
108,504,506,559.0,1
109,517,510,562.0,1
110,531,513,561.0,1
111,532,514,559.0,1
112,515,511,558.0,1
113,505,511,558.0,1
114,514,512,560.0,1
115,529,512,561.0,1
116,527,510,559.0,1
117,514,508,557.0,1
118,499,510,557.0,1
119,504,511,558.0,1
120,518,510,560.0,1
121,521,508,558.0,1
122,519,509,556.0,1
123,503,513,556.0,1
124,489,512,556.0,1
125,495,509,558.0,1
126,514,511,558.0,1
127,517,512,556.0,1
128,496,512,555.0,1
129,472,507,554.0,1
130,486,509,557.0,1
131,504,510,558.0,1
132,508,512,555.0,1
133,490,507,554.0,1
134,463,500,554.0,1
135,460,499,555.0,1
136,477,499,557.0,1
137,489,499,555.0,1
138,489,500,553.0,1
139,477,503,553.0,1
140,476,509,553.0,1
141,486,508,555.0,1
142,497,506,555.0,1
143,505,510,553.0,1
144,498,512,552.0,1
145,488,514,551.0,1
146,494,512,554.0,1
147,504,509,555.0,1
148,512,512,553.0,1
149,511,514,551.0,1
150,492,512,551.0,1
151,485,509,552.0,1
152,500,510,554.0,1
153,510,510,553.0,1
154,515,510,551.0,1
155,492,508,550.0,1
156,486,509,550.0,1
157,502,512,552.0,1
158,515,512,552.0,1
159,520,511,550.0,1
160,510,512,549.0,1
161,490,510,549.0,1
162,495,512,551.0,1
163,508,507,552.0,1
164,515,506,550.0,1
165,515,510,549.0,1
166,495,511,548.0,1
167,488,509,549.0,1
168,500,505,551.0,1
169,516,508,550.0,1
170,523,509,548.0,1
171,496,506,547.0,1
172,480,506,547.0,1
173,497,512,550.0,1
174,520,515,550.0,1
175,531,514,547.0,1
176,513,511,546.0,1
177,496,513,546.0,1
178,501,512,548.0,1
179,519,508,549.0,1
180,527,508,547.0,1
181,526,510,546.0,1
182,511,513,545.0,1
183,513,515,546.0,1
184,530,512,548.0,1
185,540,509,547.0,1
186,548,513,545.0,1
187,532,513,545.0,1
188,515,512,544.0,1
189,517,508,547.0,1
190,536,512,547.0,1
191,543,513,545.0,1
192,526,514,544.0,1
193,495,510,543.0,1
194,497,511,545.0,1
195,514,512,547.0,1
196,521,512,545.0,1
197,512,510,543.0,1
198,479,503,542.0,1
199,472,503,543.0,1
200,489,504,546.0,1
201,501,503,544.0,1
202,507,504,543.0,1
203,495,510,542.0,1
204,483,514,541.0,1
205,494,514,544.0,1
206,503,508,544.0,1
207,512,509,542.0,1
208,510,514,541.0,1
209,490,515,540.0,1
210,488,510,542.0,1
211,516,510,544.0,1
212,547,511,542.0,1
213,574,513,540.0,1
214,579,510,540.0,1
215,606,503,540.0,1
216,662,506,543.0,1
217,718,509,542.0,1
218,734,511,540.0,1
219,681,510,539.0,1
220,613,512,539.0,1
221,564,513,541.0,1
222,534,515,542.0,1
223,497,511,540.0,1
224,469,514,538.0,1
225,447,513,538.0,1
226,447,512,539.0,1
227,457,506,541.0,1
228,461,502,539.0,1
229,466,504,538.0,1
230,444,505,537.0,1
231,431,506,537.0,1
232,442,504,540.0,1
233,460,502,539.0,1
234,475,503,537.0,1
235,460,505,536.0,1
236,442,506,536.0,1
237,451,508,538.0,1
238,474,509,539.0,1
239,489,510,537.0,1
240,485,509,536.0,1
241,464,509,535.0,1
242,467,509,536.0,1
243,483,509,538.0,1
244,493,506,537.0,1
245,505,511,535.0,1
246,483,514,534.0,1
247,472,514,535.0,1
248,486,511,537.0,1
249,509,512,537.0,1
250,523,514,535.0,1
251,505,515,534.0,1
252,484,514,533.0,1
253,490,510,536.0,1
254,513,511,537.0,1
255,527,512,534.0,1
256,518,513,533.0,1
257,486,507,533.0,1
258,483,503,534.0,1
259,509,508,536.0,1
260,529,512,534.0,1
261,531,509,533.0,1
262,499,505,532.0,1
263,488,508,532.0,1
264,504,508,535.0,1
265,523,506,534.0,1
266,538,509,532.0,1
267,525,512,531.0,1
268,504,512,531.0,1
269,509,510,533.0,1
270,528,508,534.0,1
271,546,513,532.0,1
272,541,515,531.0,1
273,511,513,530.0,1
274,498,506,531.0,1
275,512,501,534.0,1
276,528,500,532.0,1
277,535,502,530.0,1
278,506,503,529.0,1
279,493,508,530.0,1
280,511,512,532.0,1
281,528,510,532.0,1
282,541,512,530.0,1
283,518,510,529.0,1
284,498,514,528.0,1
285,503,514,531.0,1
286,519,512,532.0,1
287,527,511,529.0,1
288,518,512,528.0,1
289,489,513,528.0,1
290,483,512,529.0,1
291,498,508,531.0,1
292,508,508,529.0,1
293,513,508,528.0,1
294,486,507,527.0,1
295,464,505,527.0,1
296,471,503,530.0,1
297,495,507,529.0,1
298,517,511,527.0,1
299,499,509,526.0,1
300,473,509,526.0,1
301,480,512,528.0,1
302,499,512,529.0,1
303,516,512,527.0,1
304,516,512,526.0,1
305,489,513,525.0,1
306,484,514,526.0,1
307,502,513,528.0,1
308,515,511,527.0,1
309,528,515,525.0,1
310,502,516,525.0,1
311,486,515,525.0,1
312,495,511,527.0,1
313,514,512,527.0,1
314,528,513,525.0,1
315,514,513,524.0,1
316,483,507,524.0,1
317,488,510,526.0,1
318,512,512,527.0,1
319,530,515,525.0,1
320,530,515,524.0,1
321,493,510,523.0,1
322,487,513,524.0,1
323,510,514,526.0,1
324,528,514,525.0,1
325,533,511,523.0,1
326,502,509,522.0,1
327,481,507,522.0,1
328,493,509,525.0,1
329,511,507,525.0,1
330,532,511,523.0,1
331,521,513,522.0,1
332,491,513,521.0,1
333,488,509,523.0,1
334,503,504,524.0,1
335,526,510,522.0,1
336,532,515,521.0,1
337,502,513,520.0,1
338,493,513,521.0,1
339,507,514,524.0,1
340,524,514,523.0,1
341,540,515,521.0,1
342,508,510,520.0,1
343,485,509,520.0,1
344,494,510,522.0,1
345,516,513,522.0,1
346,531,510,520.0,1
347,523,513,519.0,1
348,495,514,519.0,1
349,490,513,521.0,1
350,505,509,522.0,1
351,525,509,520.0,1
352,538,513,519.0,1
353,505,513,518.0,1
354,490,512,519.0,1
355,509,513,521.0,1
356,525,510,520.0,1
357,541,509,518.0,1
358,515,508,518.0,1
359,487,507,517.0,1
360,496,507,520.0,1
361,528,512,520.0,1
362,555,513,518.0,1
363,541,510,517.0,1
364,509,510,516.0,1
365,505,510,518.0,1
366,526,511,520.0,1
367,540,508,518.0,1
368,543,508,516.0,1
369,507,511,516.0,1
370,487,511,516.0,1
371,501,511,519.0,1
372,518,508,518.0,1
373,538,513,516.0,1
374,509,514,515.0,1
375,475,513,515.0,1
376,470,506,518.0,1
377,485,502,518.0,1
378,512,508,516.0,1
379,512,512,515.0,1
380,476,509,514.0,1
381,470,509,516.0,1
382,490,510,518.0,1
383,512,511,516.0,1
384,524,511,515.0,1
385,480,503,514.0,1
386,460,501,515.0,1
387,479,506,517.0,1
388,502,508,516.0,1
389,530,506,514.0,1
390,514,502,514.0,1
391,502,500,513.0,1
392,536,498,516.0,1
393,609,504,517.0,1
394,672,505,514.0,1
395,680,504,514.0,1
396,666,500,513.0,1
397,670,499,515.0,1
398,663,502,517.0,1
399,626,507,515.0,1
400,569,509,513.0,1
401,489,514,513.0,1
402,438,512,513.0,1
403,447,513,516.0,1
404,463,505,515.0,1
405,486,505,513.0,1
406,463,504,513.0,1
407,430,503,512.0,1
408,430,502,515.0,1
409,451,502,516.0,1
410,478,505,513.0,1
411,485,510,512.0,1
412,446,506,512.0,1
413,436,501,513.0,1
414,452,499,515.0,1
415,477,502,514.0,1
416,504,511,512.0,1
417,476,513,512.0,1
418,457,512,512.0,1
419,467,509,514.0,1
420,492,511,514.0,1
421,518,510,512.0,1
422,500,510,512.0,1
423,463,506,511.0,1
424,459,501,513.0,1
425,481,500,514.0,1
426,508,501,512.0,1
427,516,506,511.0,1
428,484,512,511.0,1
429,474,511,512.0,1
430,493,509,514.0,1
431,521,511,513.0,1
432,540,513,511.0,1
433,503,510,510.0,1
434,476,507,511.0,1
435,487,506,513.0,1
436,505,502,513.0,1
437,531,503,511.0,1
438,514,503,510.0,1
439,483,505,510.0,1
440,492,511,512.0,1
441,514,510,513.0,1
442,538,509,511.0,1
443,545,514,510.0,1
444,506,514,509.0,1
445,496,513,510.0,1
446,515,510,512.0,1
447,534,506,511.0,1
448,550,505,509.0,1
449,512,503,509.0,1
450,490,506,509.0,1
451,511,512,511.0,1
452,537,513,511.0,1
453,564,516,509.0,1
454,544,516,508.0,1
455,503,510,508.0,1
456,506,513,510.0,1
457,530,513,511.0,1
458,548,508,509.0,1
459,545,505,508.0,1
460,498,503,508.0,1
461,481,501,509.0,1
462,509,509,511.0,1
463,540,513,510.0,1
464,559,518,508.0,1
465,521,518,507.0,1
466,492,517,507.0,1
467,497,514,510.0,1
468,515,509,510.0,1
469,541,512,508.0,1
470,518,509,507.0,1
471,473,504,506.0,1
472,466,501,508.0,1
473,490,504,510.0,1
474,522,512,508.0,1
475,532,515,507.0,1
476,491,514,506.0,1
477,477,516,507.0,1
478,495,516,509.0,1
479,519,515,508.0,1
480,539,513,506.0,1
481,505,512,506.0,1
482,470,508,506.0,1
483,473,504,508.0,1
484,493,501,509.0,1
485,526,505,506.0,1
486,522,512,505.0,1
487,486,513,505.0,1
488,483,514,507.0,1
489,501,509,508.0,1
490,528,510,506.0,1
491,543,514,505.0,1
492,505,515,505.0,1
493,478,508,506.0,1
494,485,501,508.0,1
495,505,499,507.0,1
496,533,502,505.0,1
497,507,505,504.0,1
498,485,512,504.0,1
499,495,514,507.0,1
500,520,515,507.0,1
501,547,516,505.0,1
502,539,517,504.0,1
503,500,517,504.0,1
504,492,516,506.0,1
505,502,507,507.0,1
506,520,502,505.0,1
507,534,503,504.0,1
508,501,510,503.0,1
509,487,514,504.0,1
510,502,514,507.0,1
511,527,515,506.0,1
512,553,516,504.0,1
513,523,516,504.0,1
514,487,513,503.0,1
515,492,511,506.0,1
516,517,512,506.0,1
517,536,507,504.0,1
518,526,504,504.0,1
519,484,501,503.0,1
520,480,504,505.0,1
521,507,511,507.0,1
522,531,513,505.0,1
523,547,513,503.0,1
524,510,515,503.0,1
525,488,515,504.0,1
526,501,513,506.0,1
527,522,510,505.0,1
528,544,508,504.0,1
529,512,504,503.0,1
530,476,501,503.0,1
531,478,500,505.0,1
532,511,507,506.0,1
533,545,514,504.0,1
534,542,516,503.0,1
535,500,515,503.0,1
536,491,514,504.0,1
537,510,513,506.0,1
538,535,514,504.0,1
539,550,513,503.0,1
540,502,505,503.0,1
541,474,501,503.0,1
542,483,499,506.0,1
543,510,503,505.0,1
544,539,505,503.0,1
545,514,505,503.0,1
546,479,503,502.0,1
547,478,501,505.0,1
548,502,503,506.0,1
549,535,508,504.0,1
550,532,507,503.0,1
551,489,503,502.0,1
552,483,507,504.0,1
553,505,510,506.0,1
554,524,506,504.0,1
555,542,506,503.0,1
556,504,506,502.0,1
557,477,504,503.0,1
558,490,504,506.0,1
559,514,504,505.0,1
560,543,506,503.0,1
561,523,508,503.0,1
562,487,506,502.0,1
563,495,511,505.0,1
564,519,509,506.0,1
565,549,513,504.0,1
566,549,513,503.0,1
567,506,508,502.0,1
568,493,506,504.0,1
569,512,506,506.0,1
570,538,507,504.0,1
571,558,507,503.0,1
572,524,509,503.0,1
573,497,505,503.0,1
574,512,507,505.0,1
575,535,508,505.0,1
576,562,512,503.0,1
577,537,511,503.0,1
578,494,507,502.0,1
579,491,506,505.0,1
580,509,506,506.0,1
581,529,505,504.0,1
582,530,506,503.0,1
583,488,504,503.0,1
584,472,504,504.0,1
585,488,504,506.0,1
586,513,507,505.0,1
587,537,510,503.0,1
588,497,506,503.0,1
589,469,503,503.0,1
590,482,506,505.0,1
591,511,511,505.0,1
592,536,511,504.0,1
593,522,513,503.0,1
594,488,515,503.0,1
595,487,517,505.0,1
596,507,515,506.0,1
597,538,517,504.0,1
598,549,511,503.0,1
599,524,505,503.0,1
600,542,503,504.0,1
601,610,502,506.0,1
602,693,505,505.0,1
603,741,512,503.0,1
604,725,516,503.0,1
605,707,517,503.0,1
606,675,516,506.0,1
607,627,516,506.0,1
608,579,517,504.0,1
609,507,513,503.0,1
610,444,508,502.0,1
611,432,505,505.0,1
612,450,504,506.0,1
613,474,506,504.0,1
614,482,509,503.0,1
615,447,512,502.0,1
616,436,515,504.0,1
617,449,511,506.0,1
618,474,512,505.0,1
619,499,514,503.0,1
620,470,513,503.0,1
621,446,513,503.0,1
622,450,509,505.0,1
623,465,502,506.0,1
624,491,503,503.0,1
625,489,510,503.0,1
626,461,513,502.0,1
627,462,515,504.0,1
628,486,516,506.0,1
629,510,516,504.0,1
630,522,517,503.0,1
631,486,517,503.0,1
632,471,515,503.0,1
633,477,506,506.0,1
634,494,502,505.0,1
635,519,503,503.0,1
636,490,503,502.0,1
637,473,510,502.0,1
638,484,511,505.0,1
639,507,509,505.0,1
640,533,511,503.0,1
641,524,513,503.0,1
642,489,512,502.0,1
643,486,512,504.0,1
644,509,511,506.0,1
645,529,508,504.0,1
646,534,505,503.0,1
647,493,502,502.0,1
648,481,505,503.0,1
649,506,511,505.0,1
650,531,513,505.0,1
651,553,514,503.0,1
652,528,517,502.0,1
653,502,516,502.0,1
654,509,515,505.0,1
655,526,510,505.0,1
656,551,513,503.0,1
657,536,509,502.0,1
658,495,504,502.0,1
659,490,502,504.0,1
660,511,501,506.0,1
661,533,501,504.0,1
662,543,504,503.0,1
663,506,504,502.0,1
664,490,503,503.0,1
665,510,507,505.0,1
666,530,505,505.0,1
667,549,505,503.0,1
668,521,505,502.0,1
669,497,509,502.0,1
670,503,509,505.0,1
671,520,504,505.0,1
672,541,506,504.0,1
673,533,511,502.0,1
674,498,512,502.0,1
675,492,512,504.0,1
676,511,512,506.0,1
677,528,510,504.0,1
678,539,514,503.0,1
679,500,514,502.0,1
680,477,510,503.0,1
681,488,510,506.0,1
682,509,511,505.0,1
683,535,517,503.0,1
684,514,521,503.0,1
685,485,522,502.0,1
686,487,519,505.0,1
687,507,517,506.0,1
688,528,518,504.0,1
689,523,518,503.0,1
690,492,522,503.0,1
691,486,522,504.0,1
692,513,529,506.0,1
693,525,521,505.0,1
694,539,521,503.0,1
695,500,516,503.0,1
696,474,510,503.0,1
697,486,509,506.0,1
698,504,507,506.0,1
699,535,515,504.0,1
700,517,518,503.0,1
701,484,515,503.0,1
702,477,506,505.0,1
703,506,513,506.0,1
704,526,512,504.0,1
705,529,516,504.0,1
706,493,515,503.0,1
707,480,510,504.0,1
708,491,504,507.0,1
709,508,500,505.0,1
710,525,503,504.0,1
711,489,500,503.0,1
712,469,501,504.0,1
713,480,499,506.0,1
714,503,500,506.0,1
715,528,504,504.0,1
716,510,507,504.0,1
717,481,508,503.0,1
718,480,503,506.0,1
719,503,506,507.0,1
720,520,503,505.0,1
721,522,506,504.0,1
722,483,503,504.0,1
723,474,503,505.0,1
724,491,502,507.0,1
725,511,503,506.0,1
726,529,506,505.0,1
727,500,507,504.0,1
728,480,509,504.0,1
729,489,507,507.0,1
730,509,507,507.0,1
731,527,504,505.0,1
732,512,506,504.0,1
733,478,503,504.0,1
734,481,505,506.0,1
735,500,503,507.0,1
736,520,504,506.0,1
737,525,508,505.0,1
738,490,507,504.0,1
739,483,511,506.0,1
740,504,514,508.0,1
741,529,518,507.0,1
742,540,513,505.0,1
743,509,512,505.0,1
744,483,510,505.0,1
745,491,508,508.0,1
746,510,507,508.0,1
747,531,507,506.0,1
748,518,510,505.0,1
749,484,507,505.0,1
750,490,512,507.0,1
751,508,511,508.0,1
752,533,517,506.0,1
753,534,514,505.0,1
754,506,519,505.0,1
755,491,516,506.0,1
756,499,509,508.0,1
757,511,503,507.0,1
758,530,505,506.0,1
759,500,504,505.0,1
760,476,502,505.0,1
761,488,504,508.0,1
762,507,503,508.0,1
763,530,505,506.0,1
764,516,505,506.0,1
765,482,504,505.0,1
766,478,501,507.0,1
767,500,505,509.0,1
768,519,504,507.0,1
769,528,508,506.0,1
770,494,508,506.0,1
771,478,505,506.0,1
772,494,504,509.0,1
773,512,503,508.0,1
774,534,507,507.0,1
775,506,507,506.0,1
776,482,507,506.0,1
777,488,505,509.0,1
778,508,505,509.0,1
779,528,506,507.0,1
780,518,506,506.0,1
781,488,508,506.0,1
782,484,506,508.0,1
783,505,505,510.0,1
784,524,504,508.0,1
785,540,511,507.0,1
786,508,510,506.0,1
787,494,509,507.0,1
788,510,509,510.0,1
789,528,506,509.0,1
790,546,507,507.0,1
791,522,506,507.0,1
792,500,506,507.0,1
793,508,505,509.0,1
794,531,505,510.0,1
795,548,506,508.0,1
796,538,509,507.0,1
797,508,511,507.0,1
798,503,511,509.0,1
799,522,513,511.0,1
800,533,511,509.0,1
801,536,511,508.0,1
802,495,507,507.0,1
803,476,505,508.0,1
804,488,504,511.0,1
805,506,505,510.0,1
806,522,506,508.0,1
807,499,508,508.0,1
808,473,508,508.0,1
809,478,507,510.0,1
810,498,508,511.0,1
811,514,507,509.0,1
812,509,508,508.0,1
813,477,505,508.0,1
814,475,508,510.0,1
815,491,506,512.0,1
816,506,505,510.0,1
817,517,507,509.0,1
818,490,506,508.0,1
819,487,505,509.0,1
820,523,505,511.0,1
821,576,508,511.0,1
822,631,508,509.0,1
823,657,508,509.0,1
824,685,506,509.0,1
825,730,506,511.0,1
826,756,505,512.0,1
827,722,509,510.0,1
828,621,510,509.0,1
829,507,508,509.0,1
830,456,509,511.0,1
831,458,507,513.0,1
832,474,511,511.0,1
833,480,512,510.0,1
834,446,510,509.0,1
835,426,508,510.0,1
836,440,510,513.0,1
837,457,509,512.0,1
838,475,510,510.0,1
839,456,509,510.0,1
840,433,508,510.0,1
841,437,507,512.0,1
842,456,506,513.0,1
843,479,510,511.0,1
844,478,509,510.0,1
845,451,509,510.0,1
846,446,509,512.0,1
847,463,507,514.0,1
848,479,505,512.0,1
849,493,507,511.0,1
850,468,508,510.0,1
851,452,507,511.0,1
852,465,507,514.0,1
853,483,506,513.0,1
854,504,508,511.0,1
855,490,507,511.0,1
856,467,507,511.0,1
857,470,508,513.0,1
858,488,506,514.0,1
859,504,507,512.0,1
860,507,509,511.0,1
861,484,512,511.0,1
862,477,510,512.0,1
863,495,509,515.0,1
864,512,509,513.0,1
865,524,510,512.0,1
866,495,508,511.0,1
867,479,508,512.0,1
868,493,509,515.0,1
869,511,507,514.0,1
870,528,508,513.0,1
871,512,509,512.0,1
872,489,508,512.0,1
873,492,507,514.0,1
874,515,509,515.0,1
875,528,508,513.0,1
876,530,511,512.0,1
877,501,511,512.0,1
878,495,509,513.0,1
879,518,513,516.0,1
880,532,509,514.0,1
881,541,510,513.0,1
882,514,510,512.0,1
883,496,508,513.0,1
884,507,506,515.0,1
885,526,506,515.0,1
886,539,507,514.0,1
887,523,509,513.0,1
888,496,507,513.0,1
889,499,507,515.0,1
890,521,509,516.0,1
891,534,510,514.0,1
892,534,512,513.0,1
893,501,510,513.0,1
894,492,509,514.0,1
895,507,508,517.0,1
896,521,507,515.0,1
897,528,508,514.0,1
898,500,508,514.0,1
899,479,507,514.0,1
900,486,506,517.0,1
901,502,506,517.0,1
902,517,510,515.0,1
903,503,511,514.0,1
904,473,507,514.0,1
905,472,507,516.0,1
906,492,508,517.0,1
907,513,515,515.0,1
908,513,514,515.0,1
909,486,515,514.0,1
910,479,516,515.0,1
911,495,516,518.0,1
912,505,511,517.0,1
913,514,509,515.0,1
914,489,507,514.0,1
915,469,505,515.0,1
916,477,505,518.0,1
917,502,509,518.0,1
918,524,515,516.0,1
919,516,518,515.0,1
920,488,517,515.0,1
921,487,515,517.0,1
922,507,516,519.0,1
923,520,515,517.0,1
924,521,515,516.0,1
925,489,511,515.0,1
926,477,509,516.0,1
927,490,507,519.0,1
928,509,509,518.0,1
929,521,510,516.0,1
930,498,509,516.0,1
931,485,514,516.0,1
932,497,516,518.0,1
933,509,511,519.0,1
934,521,510,517.0,1
935,518,515,516.0,1
936,495,516,516.0,1
937,489,512,518.0,1
938,498,506,520.0,1
939,509,504,518.0,1
940,519,509,516.0,1
941,499,513,516.0,1
942,485,510,517.0,1
943,505,515,520.0,1
944,524,517,519.0,1
945,535,517,517.0,1
946,514,517,517.0,1
947,495,518,517.0,1
948,492,510,519.0,1
949,503,504,520.0,1
950,517,506,518.0,1
951,510,506,517.0,1
952,493,512,517.0,1
953,493,514,519.0,1
954,509,512,521.0,1
955,521,511,519.0,1
956,532,516,518.0,1
957,505,515,517.0,1
958,493,514,518.0,1
959,509,517,521.0,1
960,517,511,520.0,1
961,522,507,518.0,1
962,501,505,518.0,1
963,489,511,518.0,1
964,502,516,520.0,1
965,520,516,521.0,1
966,531,516,519.0,1
967,523,515,518.0,1
968,500,516,518.0,1
969,497,516,520.0,1
970,515,516,522.0,1
971,523,513,520.0,1
972,524,510,519.0,1
973,494,505,518.0,1
974,479,503,519.0,1
975,493,505,522.0,1
976,512,508,521.0,1
977,531,514,519.0,1
978,517,517,519.0,1
979,494,514,519.0,1
980,492,507,521.0,1
981,504,504,522.0,1
982,515,504,520.0,1
983,511,505,519.0,1
984,486,504,519.0,1
985,481,503,521.0,1
986,497,503,523.0,1
987,515,507,521.0,1
988,528,512,520.0,1
989,504,512,519.0,1
990,494,515,520.0,1
991,508,515,522.0,1
992,522,514,522.0,1
993,531,513,520.0,1
994,517,515,520.0,1
995,491,511,520.0,1
996,489,506,522.0,1
997,505,504,523.0,1
998,520,507,521.0,1
999,526,515,520.0,1
1000,505,518,520.0,1
1001,496,514,521.0,1
1002,515,514,524.0,1
1003,526,511,522.0,1
1004,538,515,521.0,1
1005,512,511,520.0,1
1006,494,507,521.0,1
1007,504,505,523.0,1
1008,519,503,523.0,1
1009,531,504,521.0,1
1010,529,512,520.0,1
1011,519,517,520.0,1
1012,528,517,523.0,1
1013,542,514,524.0,1
1014,546,510,522.0,1
1015,546,515,521.0,1
1016,522,517,521.0,1
1017,514,516,522.0,1
1018,518,509,524.0,1
1019,521,505,523.0,1
1020,526,507,522.0,1
1021,496,505,521.0,1
1022,480,505,521.0,1
1023,496,511,524.0,1
1024,514,514,524.0,1
1025,525,516,522.0,1
1026,509,516,521.0,1
1027,489,517,521.0,1
1028,492,517,523.0,1
1029,507,516,525.0,1
1030,510,509,523.0,1
1031,505,506,522.0,1
1032,478,504,521.0,1
1033,479,511,523.0,1
1034,495,512,525.0,1
1035,504,511,523.0,1
1036,516,516,522.0,1
1037,500,516,521.0,1
1038,495,515,522.0,1
1039,524,514,525.0,1
1040,571,516,525.0,1
1041,626,516,522.0,1
1042,659,510,522.0,1
1043,689,505,521.0,1
1044,729,502,524.0,1
1045,760,510,525.0,1
1046,725,516,523.0,1
1047,637,517,522.0,1
1048,538,516,522.0,1
1049,479,514,523.0,1
1050,474,513,525.0,1
1051,479,513,524.0,1
1052,476,510,522.0,1
1053,445,506,522.0,1
1054,423,503,522.0,1
1055,428,502,525.0,1
1056,442,502,525.0,1
1057,458,507,523.0,1
1058,459,514,522.0,1
1059,441,516,522.0,1
1060,442,513,524.0,1
1061,463,515,525.0,1
1062,477,516,523.0,1
1063,482,517,522.0,1
1064,459,515,522.0,1
1065,445,509,523.0,1
1066,454,504,525.0,1
1067,466,502,524.0,1
1068,485,508,522.0,1
1069,477,515,522.0,1
1070,465,517,522.0,1
1071,476,517,525.0,1
1072,492,515,525.0,1
1073,505,515,523.0,1
1074,499,517,522.0,1
1075,477,516,521.0,1
1076,477,514,524.0,1
1077,486,507,525.0,1
1078,493,502,523.0,1
1079,499,503,522.0,1
1080,483,509,522.0,1
1081,480,512,522.0,1
1082,499,515,525.0,1
1083,515,516,524.0,1
1084,524,514,522.0,1
1085,503,512,522.0,1
1086,487,512,521.0,1
1087,497,513,524.0,1
1088,508,508,525.0,1
1089,515,504,523.0,1
1090,508,503,522.0,1
1091,484,502,521.0,1
1092,489,505,523.0,1
1093,515,511,525.0,1
1094,532,514,523.0,1
1095,538,516,522.0,1
1096,515,517,521.0,1
1097,505,516,522.0,1
1098,519,515,524.0,1
1099,534,515,524.0,1
1100,536,509,522.0,1
1101,512,505,521.0,1
1102,491,503,521.0,1
1103,508,510,524.0,1
1104,532,514,524.0,1
1105,544,515,522.0,1
1106,531,512,521.0,1
1107,503,507,521.0,1
1108,506,511,523.0,1
1109,524,511,524.0,1
1110,535,512,522.0,1
1111,536,512,521.0,1
1112,506,509,521.0,1
1113,489,505,521.0,1
1114,500,503,524.0,1
1115,520,509,523.0,1
1116,532,513,521.0,1
1117,512,514,521.0,1
1118,489,513,520.0,1
1119,491,510,523.0,1
1120,508,511,524.0,1
1121,519,513,522.0,1
1122,512,514,521.0,1
1123,480,510,520.0,1
1124,469,505,522.0,1
1125,482,504,524.0,1
1126,492,503,522.0,1
1127,502,505,521.0,1
1128,484,510,520.0,1
1129,475,513,521.0,1
1130,488,513,523.0,1
1131,503,513,523.0,1
1132,513,511,521.0,1
1133,499,513,520.0,1
1134,479,512,520.0,1
1135,480,508,522.0,1
1136,492,504,523.0,1
1137,503,503,521.0,1
1138,509,511,520.0,1
1139,489,513,519.0,1
1140,486,514,521.0,1
1141,503,515,523.0,1
1142,516,514,521.0,1
1143,525,516,520.0,1
1144,500,514,519.0,1
1145,486,513,520.0,1
1146,496,513,522.0,1
1147,504,506,522.0,1
1148,513,505,520.0,1
1149,499,505,519.0,1
1150,479,506,519.0,1
1151,489,511,521.0,1
1152,508,513,522.0,1
1153,522,514,520.0,1
1154,523,515,519.0,1
1155,497,515,519.0,1
1156,489,513,520.0,1
1157,503,511,522.0,1
1158,511,508,521.0,1
1159,516,505,519.0,1
1160,491,504,519.0,1
1161,475,503,519.0,1
1162,494,510,521.0,1
1163,516,515,521.0,1
1164,531,516,519.0,1
1165,517,516,518.0,1
1166,493,515,518.0,1
1167,493,512,520.0,1
1168,512,515,522.0,1
1169,525,515,519.0,1
1170,518,509,518.0,1
1171,486,504,518.0,1
1172,477,502,519.0,1
1173,500,509,521.0,1
1174,518,511,520.0,1
1175,533,516,518.0,1
1176,509,515,518.0,1
1177,490,514,518.0,1
1178,496,510,520.0,1
1179,516,513,520.0,1
1180,528,512,518.0,1
1181,516,511,518.0,1
1182,487,507,517.0,1
1183,482,503,519.0,1
1184,497,502,521.0,1
1185,515,505,518.0,1
1186,524,511,517.0,1
1187,492,506,517.0,1
1188,479,504,518.0,1
1189,495,505,520.0,1
1190,518,512,519.0,1
1191,532,514,517.0,1
1192,511,516,516.0,1
1193,488,512,517.0,1
1194,490,505,519.0,1
1195,505,505,519.0,1
1196,519,505,517.0,1
1197,517,513,516.0,1
1198,497,517,516.0,1
1199,493,513,518.0,1
1200,512,513,519.0,1
1201,528,515,517.0,1
1202,534,518,516.0,1
1203,501,513,516.0,1
1204,493,515,517.0,1
1205,500,509,519.0,1
1206,508,504,518.0,1
1207,522,504,516.0,1
1208,502,506,515.0,1
1209,483,507,516.0,1
1210,490,507,518.0,1
1211,508,507,518.0,1
1212,528,511,516.0,1
1213,525,516,515.0,1
1214,498,514,515.0,1
1215,495,512,517.0,1
1216,508,507,518.0,1
1217,519,504,516.0,1
1218,527,504,515.0,1
1219,498,504,515.0,1
1220,490,506,515.0,1
1221,513,511,518.0,1
1222,534,515,517.0,1
1223,551,517,515.0,1
1224,531,515,514.0,1
1225,515,517,514.0,1
1226,525,517,517.0,1
1227,543,516,517.0,1
1228,548,510,515.0,1
1229,532,506,514.0,1
1230,498,504,514.0,1
1231,491,502,516.0,1
1232,511,507,517.0,1
1233,529,512,515.0,1
1234,536,516,514.0,1
1235,504,516,513.0,1
1236,487,515,514.0,1
1237,494,510,517.0,1
1238,509,511,516.0,1
1239,522,511,514.0,1
1240,496,508,513.0,1
1241,471,506,513.0,1
1242,473,503,516.0,1
1243,495,507,516.0,1
1244,517,511,514.0,1
1245,513,512,513.0,1
1246,488,514,513.0,1
1247,487,517,514.0,1
1248,501,516,516.0,1
1249,513,516,514.0,1
1250,525,517,513.0,1
1251,502,517,512.0,1
1252,492,509,513.0,1
1253,521,504,516.0,1
1254,575,502,515.0,1
1255,644,511,513.0,1
1256,680,516,512.0,1
1257,706,516,512.0,1
1258,736,513,515.0,1
1259,732,515,515.0,1
1260,680,517,513.0,1
1261,593,517,512.0,1
1262,497,509,512.0,1
1263,454,504,513.0,1
1264,459,503,515.0,1
1265,467,503,514.0,1
1266,474,505,512.0,1
1267,449,510,512.0,1
1268,435,513,512.0,1
1269,449,514,515.0,1
1270,464,513,514.0,1
1271,484,515,512.0,1
1272,468,515,511.0,1
1273,444,514,511.0,1
1274,444,510,514.0,1
1275,458,506,514.0,1
1276,473,503,512.0,1
1277,474,504,511.0,1
1278,450,507,511.0,1
1279,448,509,512.0,1
1280,471,513,514.0,1
1281,487,513,513.0,1
1282,504,515,511.0,1
1283,475,511,511.0,1
1284,463,513,511.0,1
1285,478,514,514.0,1
1286,488,507,513.0,1
1287,505,506,511.0,1
1288,488,505,511.0,1
1289,462,504,510.0,1
1290,474,509,513.0,1
1291,496,511,514.0,1
1292,517,514,511.0,1
1293,522,517,510.0,1
1294,493,517,510.0,1
1295,485,515,511.0,1
1296,503,513,514.0,1
1297,522,515,512.0,1
1298,528,510,510.0,1
1299,495,505,510.0,1
1300,476,503,510.0,1
1301,486,502,513.0,1
1302,510,506,513.0,1
1303,534,511,511.0,1
1304,520,511,510.0,1
1305,494,510,509.0,1
1306,495,507,512.0,1
1307,519,509,513.0,1
1308,536,509,511.0,1
1309,537,511,510.0,1
1310,505,509,509.0,1
1311,491,504,511.0,1
1312,508,503,513.0,1
1313,530,506,511.0,1
1314,550,513,510.0,1
1315,525,514,509.0,1
1316,507,514,509.0,1
1317,520,515,512.0,1
1318,540,516,512.0,1
1319,558,518,510.0,1
1320,542,518,509.0,1
1321,505,510,509.0,1
1322,501,504,511.0,1
1323,518,502,512.0,1
1324,533,502,510.0,1
1325,541,510,509.0,1
1326,516,516,509.0,1
1327,506,516,510.0,1
1328,521,516,512.0,1
1329,531,513,511.0,1
1330,537,511,510.0,1
1331,512,515,509.0,1
1332,490,516,509.0,1
1333,489,509,512.0,1
1334,499,504,512.0,1
1335,514,503,510.0,1
1336,499,504,509.0,1
1337,476,508,509.0,1
1338,480,512,511.0,1
1339,500,514,512.0,1
1340,517,515,510.0,1
1341,519,515,509.0,1
1342,485,512,509.0,1
1343,474,512,510.0,1
1344,488,511,512.0,1
1345,498,505,511.0,1
1346,514,505,509.0,1
1347,489,504,509.0,1
1348,472,507,509.0,1
1349,488,513,511.0,1
1350,505,512,511.0,1
1351,526,515,509.0,1
1352,520,518,509.0,1
1353,492,517,508.0,1
1354,489,516,510.0,1
1355,508,515,512.0,1
1356,514,508,510.0,1
1357,517,506,509.0,1
1358,485,504,508.0,1
1359,472,503,509.0,1
1360,491,506,512.0,1
1361,516,513,511.0,1
1362,536,516,509.0,1
1363,513,516,508.0,1
1364,492,516,508.0,1
1365,497,514,511.0,1
1366,517,515,511.0,1
1367,530,511,509.0,1
1368,519,510,508.0,1
1369,485,506,508.0,1
1370,479,503,510.0,1
1371,496,503,512.0,1
1372,516,506,510.0,1
1373,534,514,508.0,1
1374,508,516,508.0,1
1375,495,516,509.0,1
1376,511,518,511.0,1
1377,528,518,510.0,1
1378,544,519,509.0,1
1379,520,517,508.0,1
1380,486,508,508.0,1
1381,485,503,511.0,1
1382,502,501,511.0,1
1383,530,510,509.0,1
1384,529,515,508.0,1
1385,502,517,508.0,1
1386,498,517,510.0,1
1387,516,516,511.0,1
1388,529,514,509.0,1
1389,540,517,508.0,1
1390,510,516,508.0,1
1391,485,508,508.0,1
1392,492,503,511.0,1
1393,506,501,510.0,1
1394,526,503,508.0,1
1395,510,508,508.0,1
1396,486,508,508.0,1
1397,493,509,510.0,1
1398,515,512,511.0,1
1399,534,513,509.0,1
1400,527,511,508.0,1
1401,496,511,507.0,1
1402,490,510,509.0,1
1403,502,506,511.0,1
1404,514,503,509.0,1
1405,527,506,508.0,1
1406,497,505,507.0,1
1407,479,503,508.0,1
1408,490,502,511.0,1
1409,508,503,510.0,1
1410,531,507,508.0,1
1411,518,512,508.0,1
1412,493,512,507.0,1
1413,496,510,510.0,1
1414,518,512,511.0,1
1415,528,508,509.0,1
1416,522,506,508.0,1
1417,488,504,507.0,1
1418,489,510,509.0,1
1419,511,514,511.0,1
1420,529,516,509.0,1
1421,543,516,508.0,1
1422,515,516,507.0,1
1423,500,516,508.0,1
1424,514,515,511.0,1
1425,532,515,510.0,1
1426,544,511,508.0,1
1427,522,507,508.0,1
1428,495,505,507.0,1
1429,503,506,510.0,1
1430,529,510,511.0,1
1431,553,512,509.0,1
1432,552,514,508.0,1
1433,524,516,507.0,1
1434,516,515,509.0,1
1435,529,512,511.0,1
1436,544,514,509.0,1
1437,551,513,508.0,1
1438,513,508,507.0,1
1439,485,504,508.0,1
1440,489,502,510.0,1
1441,509,505,510.0,1
1442,534,513,508.0,1
1443,517,515,508.0,1
1444,491,517,507.0,1
1445,492,517,510.0,1
1446,509,516,511.0,1
1447,522,514,509.0,1
1448,524,515,508.0,1
1449,491,513,507.0,1
1450,475,506,509.0,1
1451,487,503,511.0,1
1452,499,502,510.0,1
1453,524,511,508.0,1
1454,500,516,507.0,1
1455,478,515,508.0,1
1456,486,510,510.0,1
1457,515,512,510.0,1
1458,550,515,508.0,1
1459,558,515,508.0,1
1460,576,513,507.0,1
1461,629,507,510.0,1
1462,701,505,511.0,1
1463,752,505,509.0,1
1464,728,506,508.0,1
1465,647,508,508.0,1
1466,585,514,509.0,1
1467,548,514,511.0,1
1468,517,511,510.0,1
1469,506,510,508.0,1
1470,475,514,508.0,1
1471,451,515,508.0,1
1472,452,511,511.0,1
1473,459,505,511.0,1
1474,473,504,509.0,1
1475,461,504,508.0,1
1476,437,507,508.0,1
1477,437,506,510.0,1
1478,458,507,511.0,1
1479,479,511,509.0,1
1480,486,512,508.0,1
1481,455,509,508.0,1
1482,449,511,509.0,1
1483,467,512,511.0,1
1484,485,512,510.0,1
1485,500,512,509.0,1
1486,472,507,508.0,1
1487,451,504,508.0,1
1488,469,511,511.0,1
1489,488,511,511.0,1
1490,510,513,509.0,1
1491,504,515,508.0,1
1492,474,512,508.0,1
1493,474,511,510.0,1
1494,495,511,512.0,1
1495,510,510,510.0,1
1496,513,507,509.0,1
1497,481,505,508.0,1
1498,469,504,509.0,1
1499,483,503,512.0,1
1500,504,505,511.0,1
1501,528,513,509.0,1
1502,505,511,509.0,1
1503,489,513,509.0,1
1504,502,515,511.0,1
1505,522,516,512.0,1
1506,537,515,510.0,1
1507,530,517,509.0,1
1508,496,509,509.0,1
1509,489,504,511.0,1
1510,507,502,512.0,1
1511,532,511,510.0,1
1512,545,517,509.0,1
1513,518,517,509.0,1
1514,505,515,510.0,1
1515,522,514,512.0,1
1516,541,516,511.0,1
1517,555,517,510.0,1
1518,532,517,509.0,1
1519,511,516,509.0,1
1520,512,508,512.0,1
1521,524,503,512.0,1
1522,538,502,510.0,1
1523,535,509,510.0,1
1524,513,513,509.0,1
1525,512,512,511.0,1
1526,532,512,513.0,1
1527,544,512,511.0,1
1528,547,512,510.0,1
1529,519,512,509.0,1
1530,508,513,511.0,1
1531,513,506,513.0,1
1532,522,502,512.0,1
1533,533,503,511.0,1
1534,509,504,510.0,1
1535,489,506,510.0,1
1536,502,513,513.0,1
1537,522,517,513.0,1
1538,536,517,511.0,1
1539,524,517,510.0,1
1540,494,515,510.0,1
1541,490,516,512.0,1
1542,506,516,514.0,1
1543,508,507,512.0,1
1544,510,505,511.0,1
1545,480,503,511.0,1
1546,473,509,511.0,1
1547,494,514,514.0,1
1548,506,512,513.0,1
1549,514,508,512.0,1
1550,494,506,511.0,1
1551,471,505,511.0,1
1552,477,504,513.0,1
1553,498,506,514.0,1
1554,521,513,512.0,1
1555,512,510,511.0,1
1556,480,505,511.0,1
1557,474,503,513.0,1
1558,500,510,515.0,1
1559,520,515,513.0,1
1560,531,518,512.0,1
1561,501,514,511.0,1
1562,483,510,512.0,1
1563,501,514,514.0,1
1564,520,516,514.0,1
1565,534,517,512.0,1
1566,508,509,512.0,1
1567,480,504,511.0,1
1568,481,502,514.0,1
1569,498,501,515.0,1
1570,515,505,513.0,1
1571,521,512,512.0,1
1572,497,513,511.0,1
1573,493,513,513.0,1
1574,505,510,515.0,1
1575,518,509,514.0,1
1576,527,510,512.0,1
1577,502,510,512.0,1
1578,486,508,512.0,1
1579,492,504,515.0,1
1580,504,502,515.0,1
1581,522,506,513.0,1
1582,513,511,512.0,1
1583,496,514,512.0,1
1584,501,515,515.0,1
1585,518,515,515.0,1
1586,530,516,514.0,1
1587,529,516,512.0,1
1588,503,517,512.0,1
1589,497,516,514.0,1
1590,504,508,516.0,1
1591,510,504,514.0,1
1592,520,504,513.0,1
1593,505,512,512.0,1
1594,496,516,513.0,1
1595,506,515,516.0,1
1596,523,515,516.0,1
1597,536,517,514.0,1
1598,523,517,513.0,1
1599,497,515,513.0,1
1600,500,515,515.0,1
1601,507,506,516.0,1
1602,514,502,514.0,1
1603,515,503,513.0,1
1604,489,503,513.0,1
1605,491,510,514.0,1
1606,514,515,517.0,1
1607,525,514,515.0,1
1608,535,514,514.0,1
1609,513,515,513.0,1
1610,497,514,514.0,1
1611,508,514,516.0,1
1612,521,512,516.0,1
1613,527,509,514.0,1
1614,508,505,514.0,1
1615,483,503,513.0,1
1616,490,507,516.0,1
1617,513,512,517.0,1
1618,526,512,515.0,1
1619,532,516,514.0,1
1620,509,516,514.0,1
1621,501,512,515.0,1
1622,519,513,518.0,1
1623,533,514,516.0,1
1624,541,513,515.0,1
1625,522,515,514.0,1
1626,502,511,514.0,1
1627,508,504,517.0,1
1628,533,508,517.0,1
1629,549,511,515.0,1
1630,539,513,515.0,1
1631,519,514,514.0,1
1632,522,516,517.0,1
1633,535,513,518.0,1
1634,545,515,516.0,1
1635,542,517,515.0,1
1636,504,509,515.0,1
1637,485,503,516.0,1
1638,492,501,518.0,1
1639,502,501,517.0,1
1640,520,510,515.0,1
1641,504,515,515.0,1
1642,486,514,515.0,1
1643,496,516,518.0,1
1644,511,516,518.0,1
1645,521,516,516.0,1
1646,510,515,515.0,1
1647,489,515,515.0,1
1648,480,507,517.0,1
1649,489,502,519.0,1
1650,497,501,517.0,1
1651,508,509,516.0,1
1652,484,511,515.0,1
1653,480,514,516.0,1
1654,498,512,519.0,1
1655,523,511,518.0,1
1656,553,514,516.0,1
1657,568,515,516.0,1
1658,603,513,516.0,1
1659,673,515,519.0,1
1660,732,509,519.0,1
1661,753,503,517.0,1
1662,697,502,516.0,1
1663,619,509,516.0,1
1664,562,513,518.0,1
1665,531,515,520.0,1
1666,508,515,518.0,1
1667,494,514,517.0,1
1668,467,517,516.0,1
1669,453,516,517.0,1
1670,462,515,520.0,1
1671,462,507,519.0,1
1672,465,503,518.0,1
1673,446,502,517.0,1
1674,428,501,517.0,1
1675,440,504,520.0,1
1676,466,512,520.0,1
1677,482,517,518.0,1
1678,479,517,517.0,1
1679,457,515,517.0,1
1680,458,514,519.0,1
1681,472,512,521.0,1
1682,483,511,519.0,1
1683,486,509,518.0,1
1684,463,507,517.0,1
1685,451,505,518.0,1
1686,468,507,521.0,1
1687,488,511,520.0,1
1688,496,508,518.0,1
1689,478,505,518.0,1
1690,461,504,517.0,1
1691,468,503,520.0,1
1692,487,505,521.0,1
1693,508,513,519.0,1
1694,510,517,518.0,1
1695,481,510,518.0,1
1696,474,504,520.0,1
1697,490,503,521.0,1
1698,508,508,520.0,1
1699,521,514,518.0,1
1700,500,514,518.0,1
1701,487,510,519.0,1
1702,506,513,522.0,1
1703,524,515,521.0,1
1704,534,516,519.0,1
1705,517,515,518.0,1
1706,493,508,518.0,1
1707,494,503,521.0,1
1708,509,501,522.0,1
1709,520,501,520.0,1
1710,524,509,519.0,1
1711,511,514,519.0,1
1712,511,514,520.0,1
1713,523,511,522.0,1
1714,531,508,521.0,1
1715,535,509,519.0,1
1716,519,513,519.0,1
1717,510,513,519.0,1
1718,515,507,522.0,1
1719,524,502,522.0,1
1720,532,503,520.0,1
1721,521,507,519.0,1
1722,511,512,519.0,1
1723,523,516,522.0,1
1724,541,516,523.0,1
1725,550,516,521.0,1
1726,542,516,520.0,1
1727,520,516,519.0,1
1728,516,516,521.0,1
1729,531,516,523.0,1
1730,531,509,522.0,1
1731,525,505,520.0,1
1732,497,503,520.0,1
1733,492,510,520.0,1
1734,505,513,523.0,1
1735,519,514,523.0,1
1736,528,517,521.0,1
1737,511,517,520.0,1
1738,489,515,520.0,1
1739,488,512,523.0,1
1740,506,513,524.0,1
1741,509,509,522.0,1
1742,499,505,521.0,1
1743,473,502,520.0,1
1744,469,502,522.0,1
1745,488,506,524.0,1
1746,505,511,523.0,1
1747,513,512,521.0,1
1748,496,513,521.0,1
1749,486,515,521.0,1
1750,496,514,524.0,1
1751,504,509,524.0,1
1752,507,505,522.0,1
1753,495,506,521.0,1
1754,474,504,521.0,1
1755,477,503,523.0,1
1756,499,507,525.0,1
1757,517,514,523.0,1
1758,517,516,522.0,1
1759,495,515,521.0,1
1760,491,515,523.0,1
1761,509,516,525.0,1
1762,520,515,524.0,1
1763,526,516,522.0,1
1764,505,515,522.0,1
1765,483,508,522.0,1
1766,487,503,525.0,1
1767,499,501,525.0,1
1768,514,506,523.0,1
1769,511,514,522.0,1
1770,496,515,522.0,1
1771,497,513,524.0,1
1772,509,509,526.0,1
1773,520,512,524.0,1
1774,521,514,523.0,1
1775,496,512,522.0,1
1776,483,506,523.0,1
1777,494,503,526.0,1
1778,504,503,525.0,1
1779,510,503,523.0,1
1780,494,506,522.0,1
1781,484,509,523.0,1
1782,501,513,525.0,1
1783,518,514,526.0,1
1784,526,514,524.0,1
1785,517,515,523.0,1
1786,501,517,523.0,1
1787,502,516,525.0,1
1788,507,508,526.0,1
1789,518,511,524.0,1
1790,517,510,523.0,1
1791,500,513,523.0,1
1792,498,516,524.0,1
1793,509,513,526.0,1
1794,519,511,525.0,1
1795,528,514,524.0,1
1796,511,515,523.0,1
1797,496,513,523.0,1
1798,507,514,526.0,1
1799,523,515,527.0,1
1800,520,508,525.0,1
1801,506,504,524.0,1
1802,485,502,523.0,1
1803,494,509,525.0,1
1804,516,514,527.0,1
1805,526,515,525.0,1
1806,525,513,524.0,1
1807,503,512,524.0,1
1808,496,512,525.0,1
1809,512,513,527.0,1
1810,520,508,526.0,1
1811,524,505,525.0,1
1812,504,502,524.0,1
1813,489,501,524.0,1
1814,499,500,527.0,1
1815,520,504,527.0,1
1816,539,512,525.0,1
1817,539,517,524.0,1
1818,523,516,524.0,1
1819,525,516,526.0,1
1820,542,516,528.0,1
1821,549,516,526.0,1
1822,546,515,525.0,1
1823,512,507,524.0,1
1824,495,502,525.0,1
1825,504,501,528.0,1
1826,523,509,527.0,1
1827,530,515,525.0,1
1828,511,516,525.0,1
1829,494,517,525.0,1
1830,501,517,527.0,1
1831,508,512,528.0,1
1832,503,505,526.0,1
1833,493,503,525.0,1
1834,472,502,525.0,1
1835,471,502,527.0,1
1836,487,503,529.0,1
1837,494,502,527.0,1
1838,504,509,526.0,1
1839,489,512,525.0,1
1840,478,509,526.0,1
1841,487,508,529.0,1
1842,500,511,528.0,1
1843,509,513,526.0,1
1844,498,512,526.0,1
1845,496,509,526.0,1
1846,522,505,528.0,1
1847,570,503,529.0,1
1848,624,503,527.0,1
1849,660,504,526.0,1
1850,687,507,526.0,1
1851,716,511,527.0,1
1852,715,511,530.0,1
1853,662,512,528.0,1
1854,591,514,526.0,1
1855,513,513,526.0,1
1856,465,513,527.0,1
1857,464,510,529.0,1
1858,466,506,529.0,1
1859,465,504,527.0,1
1860,447,504,526.0,1
1861,435,509,526.0,1
1862,445,514,529.0,1
1863,462,514,530.0,1
1864,470,515,528.0,1
1865,467,515,527.0,1
1866,452,515,526.0,1
1867,453,516,528.0,1
1868,471,516,530.0,1
1869,477,514,528.0,1
1870,474,509,527.0,1
1871,454,506,527.0,1
1872,445,505,527.0,1
1873,464,508,530.0,1
1874,478,508,529.0,1
1875,489,511,528.0,1
1876,482,513,527.0,1
1877,470,514,527.0,1
1878,471,509,529.0,1
1879,488,509,530.0,1
1880,499,513,528.0,1
1881,494,510,527.0,1
1882,471,505,527.0,1
1883,467,503,528.0,1
1884,483,502,531.0,1
1885,498,505,529.0,1
1886,512,514,528.0,1
1887,499,517,527.0,1
1888,491,516,528.0,1
1889,503,516,530.0,1
1890,517,515,530.0,1
1891,525,516,528.0,1
1892,514,517,527.0,1
1893,490,509,527.0,1
1894,490,503,530.0,1
1895,505,502,531.0,1
1896,523,510,529.0,1
1897,527,516,528.0,1
1898,510,516,527.0,1
1899,501,510,529.0,1
1900,508,503,531.0,1
1901,519,503,530.0,1
1902,525,506,528.0,1
1903,508,507,528.0,1
1904,496,504,528.0,1
1905,508,503,531.0,1
1906,522,503,531.0,1
1907,528,504,529.0,1
1908,515,504,528.0,1
1909,497,503,528.0,1
1910,502,503,530.0,1
1911,519,502,531.0,1
1912,526,502,529.0,1
1913,523,504,529.0,1
1914,505,505,528.0,1
1915,508,510,529.0,1
1916,519,506,532.0,1
1917,524,502,530.0,1
1918,525,503,529.0,1
1919,504,504,528.0,1
1920,492,506,529.0,1
1921,508,512,531.0,1
1922,523,515,532.0,1
1923,527,517,530.0,1
1924,512,516,529.0,1
1925,486,510,528.0,1
1926,481,505,531.0,1
1927,498,508,532.0,1
1928,504,509,530.0,1
1929,497,507,529.0,1
1930,474,505,529.0,1
1931,471,507,530.0,1
1932,492,512,532.0,1
1933,499,509,531.0,1
1934,508,514,530.0,1
1935,491,514,529.0,1
1936,476,510,529.0,1
1937,483,509,532.0,1
1938,502,512,532.0,1
1939,508,513,530.0,1
1940,497,512,529.0,1
1941,475,506,529.0,1
1942,474,503,531.0,1
1943,494,505,533.0,1
1944,509,512,531.0,1
1945,510,513,530.0,1
1946,492,513,529.0,1
1947,490,515,530.0,1
1948,507,516,533.0,1
1949,515,514,532.0,1
1950,518,514,530.0,1
1951,497,510,530.0,1
1952,479,504,530.0,1
1953,485,503,532.0,1
1954,497,502,533.0,1
1955,506,505,531.0,1
1956,507,513,530.0,1
1957,496,516,530.0,1
1958,497,514,532.0,1
1959,515,516,534.0,1
1960,522,517,532.0,1
1961,522,517,530.0,1
1962,501,515,530.0,1
1963,487,509,531.0,1
1964,496,505,533.0,1
1965,505,504,532.0,1
1966,511,507,531.0,1
1967,496,507,530.0,1
1968,489,510,530.0,1
1969,498,510,533.0,1
1970,513,512,533.0,1
1971,512,507,531.0,1
1972,503,506,530.0,1
1973,486,505,530.0,1
1974,487,505,532.0,1
1975,500,505,534.0,1
1976,505,504,532.0,1
1977,507,504,531.0,1
1978,495,509,530.0,1
1979,496,515,531.0,1
1980,513,518,534.0,1
1981,524,517,533.0,1
1982,527,517,531.0,1
1983,512,515,531.0,1
1984,496,513,531.0,1
1985,508,515,533.0,1
1986,515,507,534.0,1
1987,518,503,532.0,1
1988,514,503,531.0,1
1989,497,502,531.0,1
1990,505,509,533.0,1
1991,528,515,534.0,1
1992,538,515,533.0,1
1993,546,517,531.0,1
1994,531,516,531.0,1
1995,525,515,531.0,1
1996,532,510,534.0,1
1997,542,511,534.0,1
1998,540,509,532.0,1
1999,519,507,531.0,1
2000,500,504,531.0,1
2001,507,507,534.0,1
2002,524,514,535.0,1
2003,524,514,532.0,1
2004,515,516,531.0,1
2005,495,517,531.0,1
2006,493,517,533.0,1
2007,505,517,535.0,1
2008,510,517,533.0,1
2009,511,516,532.0,1
2010,484,509,531.0,1
2011,469,503,532.0,1
2012,478,502,535.0,1
2013,496,507,534.0,1
2014,510,515,532.0,1
2015,503,518,532.0,1
2016,490,518,531.0,1
2017,493,516,534.0,1
2018,506,516,535.0,1
2019,513,517,533.0,1
2020,518,517,532.0,1
2021,512,510,532.0,1
2022,536,508,533.0,1
2023,586,508,535.0,1
2024,636,503,534.0,1
2025,675,504,533.0,1
2026,695,506,532.0,1
2027,708,509,533.0,1
2028,690,508,535.0,1
2029,635,506,535.0,1
2030,572,507,533.0,1
2031,510,508,532.0,1
2032,461,509,532.0,1
2033,451,507,535.0,1
2034,465,510,536.0,1
2035,467,509,534.0,1
2036,459,506,533.0,1
2037,438,503,532.0,1
2038,433,504,534.0,1
2039,446,504,536.0,1
2040,452,502,535.0,1
2041,458,503,533.0,1
2042,445,504,532.0,1
2043,438,503,533.0,1
2044,451,502,536.0,1
2045,463,503,536.0,1
2046,469,503,534.0,1
2047,462,505,533.0,1
2048,456,508,532.0,1
2049,472,515,535.0,1
2050,488,517,536.0,1
2051,493,515,534.0,1
2052,499,518,533.0,1
2053,484,519,533.0,1
2054,481,518,534.0,1
2055,494,516,536.0,1
2056,495,509,535.0,1
2057,494,505,534.0,1
2058,479,504,533.0,1
2059,470,503,533.0,1
2060,488,508,536.0,1
2061,506,512,536.0,1
2062,515,516,534.0,1
2063,506,515,533.0,1
2064,493,514,533.0,1
2065,497,513,535.0,1
2066,512,512,537.0,1
2067,520,514,535.0,1
2068,513,509,534.0,1
2069,493,505,533.0,1
2070,488,503,534.0,1
2071,513,510,537.0,1
2072,528,515,536.0,1
2073,535,518,534.0,1
2074,521,518,533.0,1
2075,511,517,534.0,1
2076,520,515,536.0,1
2077,534,516,537.0,1
2078,541,517,535.0,1
2079,534,518,534.0,1
2080,509,510,533.0,1
2081,503,503,536.0,1
2082,517,501,537.0,1
2083,535,510,535.0,1
2084,538,514,534.0,1
2085,523,516,534.0,1
2086,519,516,535.0,1
2087,534,516,537.0,1
2088,543,516,536.0,1
2089,544,516,535.0,1
2090,528,517,534.0,1
2091,509,510,534.0,1
2092,509,503,537.0,1
2093,516,502,537.0,1
2094,517,501,535.0,1
2095,516,510,534.0,1
2096,506,515,534.0,1
2097,504,514,536.0,1
2098,516,514,538.0,1
2099,517,513,536.0,1
2100,515,514,535.0,1
2101,492,511,534.0,1
2102,483,510,535.0,1
2103,498,513,538.0,1
2104,505,512,537.0,1
2105,508,513,535.0,1
2106,493,512,535.0,1
2107,474,506,535.0,1
2108,478,502,537.0,1
2109,492,504,538.0,1
2110,495,503,536.0,1
2111,487,502,535.0,1
2112,475,503,534.0,1
2113,477,504,536.0,1
2114,491,506,538.0,1
2115,497,505,537.0,1
2116,500,507,535.0,1
2117,484,507,535.0,1
2118,478,505,536.0,1
2119,490,503,538.0,1
2120,498,502,537.0,1
2121,503,503,536.0,1
2122,492,506,535.0,1
2123,481,505,535.0,1
2124,490,507,538.0,1
2125,501,505,538.0,1
2126,504,504,536.0,1
2127,501,506,535.0,1
2128,487,506,535.0,1
2129,487,505,537.0,1
2130,501,504,539.0,1
2131,506,503,537.0,1
2132,507,504,536.0,1
2133,490,504,535.0,1
2134,483,504,536.0,1
2135,496,505,539.0,1
2136,505,504,538.0,1
2137,510,506,536.0,1
2138,502,508,535.0,1
2139,490,508,535.0,1
2140,492,506,538.0,1
2141,502,504,539.0,1
2142,507,504,537.0,1
2143,505,505,536.0,1
2144,489,505,535.0,1
2145,489,504,537.0,1
2146,502,504,539.0,1
2147,510,504,538.0,1
2148,513,505,536.0,1
2149,499,505,536.0,1
2150,500,510,536.0,1
2151,517,513,539.0,1
2152,532,515,539.0,1
2153,534,513,537.0,1
2154,519,508,536.0,1
2155,504,505,536.0,1
2156,513,505,538.0,1
2157,531,506,539.0,1
2158,538,505,537.0,1
2159,532,505,536.0,1
2160,515,505,536.0,1
2161,516,505,538.0,1
2162,531,506,540.0,1
2163,534,506,538.0,1
2164,530,508,537.0,1
2165,507,506,536.0,1
2166,494,505,537.0,1
2167,501,505,539.0,1
2168,508,505,539.0,1
2169,509,506,537.0,1
2170,497,508,536.0,1
2171,483,510,536.0,1
2172,487,512,539.0,1
2173,507,518,540.0,1
2174,509,517,538.0,1
2175,499,512,537.0,1
2176,479,507,536.0,1
2177,476,505,538.0,1
2178,488,504,540.0,1
2179,502,510,539.0,1
2180,507,513,537.0,1
2181,489,509,536.0,1
2182,484,507,537.0,1
2183,509,510,540.0,1
2184,536,513,540.0,1
2185,556,510,538.0,1
2186,575,508,537.0,1
2187,600,505,537.0,1
2188,647,508,539.0,1
2189,706,511,540.0,1
2190,740,512,538.0,1
2191,724,516,537.0,1
2192,664,518,537.0,1
2193,599,518,538.0,1
2194,551,511,541.0,1
2195,516,511,539.0,1
2196,480,508,538.0,1
2197,446,506,537.0,1
2198,434,505,538.0,1
2199,445,505,540.0,1
2200,462,510,540.0,1
2201,468,514,538.0,1
2202,461,514,537.0,1
2203,448,515,537.0,1
2204,453,515,540.0,1
2205,470,514,541.0,1
2206,475,513,539.0,1
2207,472,512,538.0,1
2208,452,509,537.0,1
2209,447,505,539.0,1
2210,462,505,541.0,1
2211,476,511,540.0,1
2212,484,515,538.0,1
2213,477,516,537.0,1
2214,470,514,538.0,1
2215,483,514,541.0,1
2216,497,517,541.0,1
2217,500,517,539.0,1
2218,493,518,538.0,1
2219,476,512,537.0,1
2220,477,507,540.0,1
2221,492,507,541.0,1
2222,495,506,539.0,1
2223,496,508,538.0,1
2224,491,513,538.0,1
2225,490,513,539.0,1
2226,506,514,541.0,1
2227,516,514,540.0,1
2228,524,517,539.0,1
2229,514,518,538.0,1
2230,502,517,538.0,1
2231,502,509,541.0,1
2232,509,504,541.0,1
2233,509,503,539.0,1
2234,501,503,538.0,1
2235,495,506,538.0,1
2236,510,513,540.0,1
2237,531,517,542.0,1
2238,536,517,540.0,1
2239,532,517,539.0,1
2240,511,511,538.0,1
2241,512,514,539.0,1
2242,530,517,542.0,1
2243,533,509,541.0,1
2244,528,505,539.0,1
2245,511,504,538.0,1
2246,511,511,538.0,1
2247,527,516,541.0,1
2248,540,515,542.0,1
2249,539,513,540.0,1
2250,532,514,539.0,1
2251,519,516,538.0,1
2252,513,510,540.0,1
2253,524,508,542.0,1
2254,523,506,540.0,1
2255,516,504,539.0,1
2256,500,504,539.0,1
2257,498,505,540.0,1
2258,510,504,542.0,1
2259,513,505,541.0,1
2260,508,505,540.0,1
2261,495,506,539.0,1
2262,488,509,539.0,1
2263,501,514,542.0,1
2264,511,513,542.0,1
2265,507,511,540.0,1
2266,495,508,539.0,1
2267,481,505,539.0,1
2268,481,503,541.0,1
2269,491,504,543.0,1
2270,502,511,541.0,1
2271,508,518,540.0,1
2272,497,518,539.0,1
2273,492,517,540.0,1
2274,505,517,543.0,1
2275,516,517,542.0,1
2276,515,519,540.0,1
2277,501,518,539.0,1
2278,486,511,539.0,1
2279,486,505,542.0,1
2280,496,503,543.0,1
2281,509,510,540.0,1
2282,509,513,540.0,1
2283,500,516,539.0,1
2284,498,514,541.0,1
2285,504,511,543.0,1
2286,513,513,541.0,1
2287,515,513,540.0,1
2288,506,515,540.0,1
2289,495,510,540.0,1
2290,494,504,543.0,1
2291,502,506,542.0,1
2292,505,506,541.0,1
2293,496,505,540.0,1
2294,487,503,540.0,1
2295,495,504,542.0,1
2296,517,512,543.0,1
2297,518,514,541.0,1
2298,515,516,540.0,1
2299,501,513,540.0,1
2300,507,517,541.0,1
2301,514,510,544.0,1
2302,512,504,542.0,1
2303,509,503,540.0,1
2304,491,503,540.0,1
2305,490,508,541.0,1
2306,510,514,543.0,1
2307,526,516,543.0,1
2308,530,518,541.0,1
2309,526,518,540.0,1
2310,516,518,540.0,1
2311,519,515,543.0,1
2312,524,508,544.0,1
2313,526,506,542.0,1
2314,518,506,541.0,1
2315,504,504,540.0,1
2316,511,504,542.0,1
2317,533,508,544.0,1
2318,542,511,542.0,1
2319,543,513,541.0,1
2320,520,510,541.0,1
2321,509,514,541.0,1
2322,520,515,544.0,1
2323,530,514,543.0,1
2324,521,509,541.0,1
2325,501,505,541.0,1
2326,486,503,540.0,1
2327,487,503,543.0,1
2328,498,505,544.0,1
2329,506,512,542.0,1
2330,511,518,541.0,1
2331,501,517,541.0,1
2332,500,517,542.0,1
2333,506,516,544.0,1
2334,509,517,543.0,1
2335,511,518,541.0,1
2336,496,510,541.0,1
2337,483,505,541.0,1
2338,488,502,544.0,1
2339,493,502,544.0,1
2340,504,506,542.0,1
2341,515,514,541.0,1
2342,531,517,541.0,1
2343,557,517,543.0,1
2344,597,517,544.0,1
2345,639,517,543.0,1
2346,660,514,542.0,1
2347,675,514,541.0,1
2348,691,509,542.0,1
2349,698,503,545.0,1
2350,676,502,544.0,1
2351,623,507,542.0,1
2352,564,516,541.0,1
2353,519,519,542.0,1
2354,486,517,544.0,1
2355,471,517,544.0,1
2356,471,517,542.0,1
2357,469,518,542.0,1
2358,456,515,541.0,1
2359,452,506,544.0,1
2360,454,502,545.0,1
2361,448,501,543.0,1
2362,443,503,542.0,1
2363,441,508,541.0,1
2364,452,512,543.0,1
2365,475,515,545.0,1
2366,485,516,544.0,1
2367,483,516,542.0,1
2368,472,518,542.0,1
2369,467,518,542.0,1
2370,479,517,545.0,1
2371,486,509,545.0,1
2372,485,504,543.0,1
2373,471,504,542.0,1
2374,457,503,542.0,1
2375,469,503,544.0,1
2376,491,508,546.0,1
2377,495,511,543.0,1
2378,496,513,542.0,1
2379,482,512,542.0,1
2380,484,513,543.0,1
2381,502,516,545.0,1
2382,514,516,544.0,1
2383,510,511,543.0,1
2384,496,506,542.0,1
2385,482,504,542.0,1
2386,494,507,545.0,1
2387,518,514,545.0,1
2388,524,514,543.0,1
2389,517,518,542.0,1
2390,511,518,542.0,1
2391,516,518,544.0,1
2392,526,515,546.0,1
2393,528,516,544.0,1
2394,518,509,543.0,1
2395,497,504,542.0,1
2396,495,503,543.0,1
2397,513,503,546.0,1
2398,521,503,545.0,1
2399,522,506,543.0,1
2400,515,513,543.0,1
2401,503,509,543.0,1
2402,522,512,545.0,1
2403,542,515,546.0,1
2404,540,515,544.0,1
2405,525,512,543.0,1
2406,509,507,542.0,1
2407,506,503,544.0,1
2408,510,503,546.0,1
2409,515,505,545.0,1
2410,510,508,543.0,1
2411,505,511,543.0,1
2412,507,513,544.0,1
2413,511,510,546.0,1
2414,522,512,545.0,1
2415,521,512,544.0,1
2416,509,515,543.0,1
2417,498,515,543.0,1
2418,495,507,546.0,1
2419,501,503,546.0,1
2420,496,503,544.0,1
2421,487,506,543.0,1
2422,486,512,543.0,1
2423,495,516,545.0,1
2424,509,517,547.0,1
2425,513,518,545.0,1
2426,506,516,544.0,1
2427,493,518,543.0,1
2428,491,518,544.0,1
2429,495,509,546.0,1
2430,494,505,546.0,1
2431,493,504,544.0,1
2432,482,504,543.0,1
2433,486,512,543.0,1
2434,499,515,546.0,1
2435,508,517,547.0,1
2436,504,517,545.0,1
2437,502,517,544.0,1
2438,493,516,543.0,1
2439,492,514,545.0,1
2440,506,515,547.0,1
2441,504,511,545.0,1
2442,499,506,544.0,1
2443,488,503,544.0,1
2444,492,507,544.0,1
2445,511,513,547.0,1
2446,521,515,546.0,1
2447,518,512,545.0,1
2448,512,516,544.0,1
2449,510,518,543.0,1
2450,522,518,546.0,1
2451,521,515,547.0,1
2452,519,516,545.0,1
2453,505,510,544.0,1
2454,492,504,544.0,1
2455,488,502,545.0,1
2456,499,510,548.0,1
2457,501,512,546.0,1
2458,512,513,545.0,1
2459,513,514,544.0,1
2460,506,516,544.0,1
2461,510,516,547.0,1
2462,519,516,547.0,1
2463,526,515,545.0,1
2464,506,507,544.0,1
2465,489,502,544.0,1
2466,497,501,546.0,1
2467,518,500,548.0,1
2468,535,508,545.0,1
2469,528,514,545.0,1
2470,507,511,544.0,1
2471,506,512,546.0,1
2472,524,510,548.0,1
2473,538,511,546.0,1
2474,536,513,545.0,1
2475,520,515,544.0,1
2476,499,510,545.0,1
2477,506,504,547.0,1
2478,514,502,547.0,1
2479,509,506,545.0,1
2480,503,514,545.0,1
2481,496,516,544.0,1
2482,502,517,547.0,1
2483,514,517,548.0,1
2484,508,515,546.0,1
2485,495,511,545.0,1
2486,492,513,544.0,1
2487,502,515,546.0,1
2488,504,510,548.0,1
2489,494,503,547.0,1
2490,492,502,545.0,1
2491,484,506,545.0,1
2492,486,513,545.0,1
2493,496,514,548.0,1
2494,511,515,548.0,1
2495,519,517,546.0,1
2496,519,517,545.0,1
2497,533,515,544.0,1
2498,562,512,547.0,1
2499,601,509,548.0,1
2500,628,503,546.0,1
2501,648,502,545.0,1
2502,664,502,545.0,1
2503,687,508,546.0,1
2504,696,513,548.0,1
2505,669,515,547.0,1
2506,612,512,546.0,1
2507,554,514,545.0,1
2508,503,515,545.0,1
2509,470,514,548.0,1
2510,454,509,548.0,1
2511,445,503,546.0,1
2512,439,502,545.0,1
2513,437,501,545.0,1
2514,454,507,547.0,1
2515,460,513,549.0,1
2516,461,515,547.0,1
2517,466,517,545.0,1
2518,456,516,545.0,1
2519,448,509,546.0,1
2520,470,511,549.0,1
2521,475,513,547.0,1
2522,476,514,546.0,1
2523,463,508,545.0,1
2524,454,503,545.0,1
2525,459,501,548.0,1
2526,479,510,548.0,1
2527,488,515,546.0,1
2528,488,518,545.0,1
2529,474,516,545.0,1
2530,480,516,547.0,1
2531,498,516,549.0,1
2532,503,517,547.0,1
2533,505,517,545.0,1
2534,486,510,545.0,1
2535,475,508,546.0,1
2536,485,507,548.0,1
2537,492,504,548.0,1
2538,500,507,546.0,1
2539,502,514,545.0,1
2540,487,508,545.0,1
2541,489,505,548.0,1
2542,503,504,548.0,1
2543,510,505,546.0,1
2544,506,509,545.0,1
2545,497,514,545.0,1
2546,496,508,547.0,1
2547,512,503,549.0,1
2548,515,501,547.0,1
2549,519,510,546.0,1
2550,510,515,545.0,1
2551,519,516,546.0,1
2552,530,515,548.0,1
2553,527,512,548.0,1
2554,529,515,546.0,1
2555,524,515,545.0,1
2556,514,515,545.0,1
2557,511,507,548.0,1
2558,519,503,548.0,1
2559,520,502,546.0,1
2560,511,502,545.0,1
2561,496,503,545.0,1
2562,501,508,547.0,1
2563,519,512,549.0,1
2564,526,511,547.0,1
2565,524,512,545.0,1
2566,504,511,545.0,1
2567,499,512,546.0,1
2568,513,512,548.0,1
2569,517,508,548.0,1
2570,505,505,546.0,1
2571,490,504,545.0,1
2572,479,503,545.0,1
2573,490,504,548.0,1
2574,503,508,548.0,1
2575,506,511,546.0,1
2576,503,513,545.0,1
2577,492,514,545.0,1
2578,492,512,546.0,1
2579,505,514,548.0,1
2580,507,516,547.0,1
2581,500,512,545.0,1
2582,481,505,545.0,1
2583,472,503,545.0,1
2584,491,507,548.0,1
2585,506,512,547.0,1
2586,509,514,545.0,1
2587,505,517,545.0,1
2588,495,517,544.0,1
2589,498,516,547.0,1
2590,508,515,548.0,1
2591,511,516,546.0,1
2592,509,517,545.0,1
2593,492,509,544.0,1
2594,488,504,546.0,1
2595,498,502,548.0,1
2596,506,504,546.0,1
2597,511,510,545.0,1
2598,495,510,544.0,1
2599,489,510,545.0,1
2600,507,512,547.0,1
2601,521,513,547.0,1
2602,522,515,545.0,1
2603,507,510,544.0,1
2604,491,505,544.0,1
2605,492,503,546.0,1
2606,504,504,548.0,1
2607,512,505,545.0,1
2608,503,505,544.0,1
2609,488,503,544.0,1
2610,492,502,545.0,1
2611,504,502,547.0,1
2612,503,502,546.0,1
2613,501,502,544.0,1
2614,495,503,544.0,1
2615,487,504,544.0,1
2616,495,505,547.0,1
2617,507,507,546.0,1
2618,513,508,544.0,1
2619,501,507,543.0,1
2620,495,506,543.0,1
2621,501,505,546.0,1
2622,514,505,547.0,1
2623,518,504,544.0,1
2624,515,506,543.0,1
2625,499,505,543.0,1
2626,500,505,544.0,1
2627,522,507,546.0,1
2628,534,510,545.0,1
2629,532,510,543.0,1
2630,516,508,543.0,1
2631,509,507,543.0,1
2632,520,505,545.0,1
2633,524,504,545.0,1
2634,520,504,543.0,1
2635,504,505,542.0,1
2636,488,506,542.0,1
2637,493,506,544.0,1
2638,504,505,546.0,1
2639,502,505,543.0,1
2640,497,507,542.0,1
2641,483,508,542.0,1
2642,484,507,543.0,1
2643,492,506,545.0,1
2644,493,505,544.0,1
2645,493,506,542.0,1
2646,482,506,542.0,1
2647,475,505,542.0,1
2648,487,505,544.0,1
2649,496,505,544.0,1
2650,494,506,542.0,1
2651,490,508,541.0,1
2652,482,508,541.0,1
2653,492,508,543.0,1
2654,512,507,544.0,1
2655,532,505,542.0,1
2656,554,506,541.0,1
2657,574,506,540.0,1
2658,612,506,541.0,1
2659,664,506,544.0,1
2660,709,507,543.0,1
2661,724,510,541.0,1
2662,694,510,540.0,1
2663,636,508,540.0,1
2664,582,507,543.0,1
2665,541,507,543.0,1
2666,498,507,541.0,1
2667,457,507,540.0,1
2668,436,506,539.0,1
2669,438,505,541.0,1
2670,452,505,543.0,1
2671,457,505,541.0,1
2672,455,507,539.0,1
2673,438,507,539.0,1
2674,434,507,540.0,1
2675,447,507,542.0,1
2676,456,506,541.0,1
2677,462,507,539.0,1
2678,456,510,538.0,1
2679,447,509,538.0,1
2680,452,507,541.0,1
2681,466,508,541.0,1
2682,481,512,539.0,1
2683,483,516,538.0,1
2684,467,513,537.0,1
2685,464,513,539.0,1
2686,476,512,541.0,1
2687,480,508,539.0,1
2688,484,508,537.0,1
2689,479,515,537.0,1
2690,477,516,537.0,1
2691,492,515,540.0,1
2692,503,513,539.0,1
2693,510,516,537.0,1
2694,496,518,536.0,1
2695,483,515,536.0,1
2696,496,513,539.0,1
2697,514,516,539.0,1
2698,508,509,537.0,1
2699,496,507,536.0,1
2700,484,506,535.0,1
2701,494,509,537.0,1
2702,514,515,539.0,1
2703,525,517,537.0,1
2704,527,517,535.0,1
2705,507,517,535.0,1
2706,500,516,535.0,1
2707,516,516,538.0,1
2708,527,514,537.0,1
2709,526,509,535.0,1
2710,508,506,534.0,1
2711,493,505,534.0,1
2712,500,504,536.0,1
2713,526,512,537.0,1
2714,538,519,535.0,1
2715,533,521,533.0,1
2716,514,520,533.0,1
2717,512,517,534.0,1
2718,532,518,536.0,1
2719,541,519,534.0,1
2720,540,520,533.0,1
2721,509,511,532.0,1
2722,492,505,533.0,1
2723,500,503,535.0,1
2724,524,510,535.0,1
2725,530,512,532.0,1
2726,511,514,532.0,1
2727,495,517,531.0,1
2728,504,518,534.0,1
2729,518,517,534.0,1
2730,522,516,532.0,1
2731,514,516,531.0,1
2732,492,517,530.0,1
2733,482,511,532.0,1
2734,488,505,534.0,1
2735,495,502,532.0,1
2736,504,508,530.0,1
2737,488,515,530.0,1
2738,479,517,530.0,1
2739,493,518,533.0,1
2740,508,517,532.0,1
2741,519,518,530.0,1
2742,501,517,529.0,1
2743,484,517,528.0,1
2744,478,508,531.0,1
2745,488,503,532.0,1
2746,494,503,529.0,1
2747,491,504,528.0,1
2748,479,512,528.0,1
2749,483,516,529.0,1
2750,502,517,531.0,1
2751,517,518,529.0,1
2752,523,519,528.0,1
2753,498,518,527.0,1
2754,480,514,527.0,1
2755,492,512,530.0,1
2756,505,508,529.0,1
2757,514,506,527.0,1
2758,495,505,526.0,1
2759,478,508,526.0,1
2760,488,513,528.0,1
2761,510,515,529.0,1
2762,521,514,527.0,1
2763,519,515,526.0,1
2764,497,517,525.0,1
2765,494,517,526.0,1
2766,511,516,528.0,1
2767,520,514,526.0,1
2768,520,508,525.0,1
2769,490,505,524.0,1
2770,469,503,524.0,1
2771,488,509,527.0,1
2772,514,514,526.0,1
2773,529,518,524.0,1
2774,514,518,523.0,1
2775,489,517,523.0,1
2776,494,516,525.0,1
2777,515,517,526.0,1
2778,529,517,524.0,1
2779,517,510,522.0,1
2780,480,505,522.0,1
2781,469,503,523.0,1
2782,486,502,525.0,1
2783,509,505,523.0,1
2784,524,509,522.0,1
2785,500,510,521.0,1
2786,488,513,521.0,1
2787,502,515,523.0,1
2788,520,513,523.0,1
2789,537,514,521.0,1
2790,527,517,520.0,1
2791,494,511,520.0,1
2792,488,505,522.0,1
2793,506,502,523.0,1
2794,530,507,521.0,1
2795,544,515,519.0,1
2796,521,515,519.0,1
2797,515,515,520.0,1
2798,530,516,522.0,1
2799,547,517,520.0,1
2800,557,518,519.0,1
2801,521,513,518.0,1
2802,498,514,518.0,1
2803,502,510,520.0,1
2804,513,503,520.0,1
2805,526,503,518.0,1
2806,511,508,517.0,1
2807,483,513,516.0,1
2808,482,513,519.0,1
2809,500,514,520.0,1
2810,515,516,518.0,1
2811,522,518,516.0,1
2812,492,518,516.0,1
2813,477,516,516.0,1
2814,479,507,519.0,1
2815,489,503,517.0,1
2816,509,506,516.0,1
2817,485,507,515.0,1
2818,467,509,515.0,1
2819,482,514,517.0,1
2820,502,515,517.0,1
2821,520,516,515.0,1
2822,508,512,514.0,1
2823,482,507,514.0,1
2824,497,505,515.0,1
2825,544,504,517.0,1
2826,598,504,515.0,1
2827,636,506,513.0,1
2828,645,505,513.0,1
2829,683,509,514.0,1
2830,727,514,516.0,1
2831,730,515,515.0,1
2832,673,519,513.0,1
2833,564,517,512.0,1
2834,483,517,512.0,1
2835,451,513,514.0,1
2836,462,515,515.0,1
2837,485,515,512.0,1
2838,468,509,511.0,1
2839,428,504,511.0,1
2840,419,502,513.0,1
2841,445,505,514.0,1
2842,475,511,512.0,1
2843,488,515,511.0,1
2844,454,517,510.0,1
2845,437,517,511.0,1
2846,452,516,513.0,1
2847,476,515,512.0,1
2848,499,513,510.0,1
2849,469,509,509.0,1
2850,435,504,509.0,1
2851,440,502,512.0,1
2852,465,503,512.0,1
2853,497,507,510.0,1
2854,501,514,509.0,1
2855,469,516,508.0,1
2856,463,516,510.0,1
2857,484,517,511.0,1
2858,508,517,509.0,1
2859,526,519,508.0,1
2860,489,517,507.0,1
2861,459,507,508.0,1
2862,468,503,510.0,1
2863,489,502,509.0,1
2864,528,511,508.0,1
2865,510,516,507.0,1
2866,485,517,506.0,1
2867,490,517,509.0,1
2868,512,517,509.0,1
2869,537,516,507.0,1
2870,537,518,506.0,1
2871,500,517,506.0,1
2872,491,517,507.0,1
2873,500,508,509.0,1
2874,518,503,507.0,1
2875,536,504,506.0,1
2876,504,508,505.0,1
2877,490,513,505.0,1
2878,507,515,508.0,1
2879,533,516,507.0,1
2880,560,515,505.0,1
2881,533,513,504.0,1
2882,496,511,504.0,1
2883,502,512,506.0,1
2884,521,507,507.0,1
2885,543,504,505.0,1
2886,540,505,504.0,1
2887,498,503,503.0,1
2888,492,506,505.0,1
2889,521,512,507.0,1
2890,545,514,505.0,1
2891,563,518,503.0,1
2892,525,518,503.0,1
2893,501,517,503.0,1
2894,511,514,506.0,1
2895,535,515,505.0,1
2896,554,510,503.0,1
2897,521,505,502.0,1
2898,479,503,502.0,1
2899,487,510,504.0,1
2900,515,515,505.0,1
2901,542,518,503.0,1
2902,538,517,502.0,1
2903,485,509,501.0,1
2904,470,508,502.0,1
2905,490,511,504.0,1
2906,514,511,503.0,1
2907,534,510,501.0,1
2908,490,506,501.0,1
2909,458,503,501.0,1
2910,465,502,503.0,1
2911,491,504,503.0,1
2912,532,511,501.0,1
2913,517,515,500.0,1
2914,480,514,499.0,1
2915,476,512,502.0,1
2916,496,510,503.0,1
2917,527,512,500.0,1
2918,535,515,499.0,1
2919,487,510,499.0,1
2920,469,506,500.0,1
2921,483,503,502.0,1
2922,506,502,501.0,1
2923,540,508,499.0,1
2924,508,512,498.0,1
2925,483,514,499.0,1
2926,492,514,501.0,1
2927,516,512,501.0,1
2928,546,511,499.0,1
2929,531,513,498.0,1
2930,491,512,497.0,1
2931,482,507,500.0,1
2932,497,503,501.0,1
2933,526,503,499.0,1
2934,544,512,497.0,1
2935,504,514,497.0,1
2936,484,513,498.0,1
2937,501,513,500.0,1
2938,529,513,499.0,1
2939,558,515,497.0,1
2940,523,516,496.0,1
2941,491,517,496.0,1
2942,497,516,499.0,1
2943,511,507,499.0,1
2944,541,506,497.0,1
2945,524,505,496.0,1
2946,489,511,496.0,1
2947,488,514,498.0,1
2948,512,516,499.0,1
2949,540,515,497.0,1
2950,554,518,496.0,1
2951,510,517,495.0,1
2952,489,516,496.0,1
2953,495,509,498.0,1
2954,515,505,497.0,1
2955,546,505,495.0,1
2956,510,504,495.0,1
2957,476,503,495.0,1
2958,490,509,497.0,1
2959,520,513,497.0,1
2960,556,516,495.0,1
2961,542,516,495.0,1
2962,491,508,494.0,1
2963,480,505,496.0,1
2964,500,503,497.0,1
2965,528,504,496.0,1
2966,546,506,495.0,1
2967,500,505,494.0,1
2968,476,503,495.0,1
2969,499,510,497.0,1
2970,527,514,496.0,1
2971,563,518,494.0,1
2972,531,518,494.0,1
2973,494,515,494.0,1
2974,495,510,496.0,1
2975,518,508,496.0,1
2976,555,510,494.0,1
2977,547,510,494.0,1
2978,503,509,493.0,1
2979,494,507,495.0,1
2980,512,504,496.0,1
2981,546,507,494.0,1
2982,572,514,493.0,1
2983,531,512,493.0,1
2984,514,515,494.0,1
2985,528,515,496.0,1
2986,549,513,495.0,1
2987,578,514,493.0,1
2988,545,517,493.0,1
2989,498,509,492.0,1
2990,492,503,495.0,1
2991,509,502,496.0,1
2992,541,504,493.0,1
2993,540,513,493.0,1
2994,497,517,492.0,1
2995,483,516,494.0,1
2996,502,517,496.0,1
2997,529,517,494.0,1
2998,551,518,493.0,1
2999,507,518,492.0,1
3000,477,513,493.0,1
3001,481,508,495.0,1
3002,499,503,494.0,1
3003,537,505,493.0,1
3004,517,511,492.0,1
3005,485,515,492.0,1
3006,486,515,494.0,1
3007,505,513,495.0,1
3008,536,512,493.0,1
3009,539,511,492.0,1
3010,510,513,492.0,1
3011,522,513,493.0,1
3012,569,510,495.0,1
3013,634,505,493.0,1
3014,682,505,492.0,1
3015,681,503,492.0,1
3016,701,505,492.0,1
3017,737,512,495.0,1
3018,729,516,494.0,1
3019,674,519,492.0,1
3020,561,517,492.0,1
3021,471,516,491.0,1
3022,450,516,494.0,1
3023,468,515,494.0,1
3024,491,508,493.0,1
3025,484,505,492.0,1
3026,435,503,491.0,1
3027,421,501,493.0,1
3028,447,509,494.0,1
3029,479,514,493.0,1
3030,509,518,492.0,1
3031,471,518,491.0,1
3032,445,517,492.0,1
3033,455,515,494.0,1
3034,477,513,493.0,1
3035,516,516,492.0,1
3036,489,511,491.0,1
3037,445,505,491.0,1
3038,444,503,493.0,1
3039,477,512,494.0,1
3040,516,516,492.0,1
3041,523,518,491.0,1
3042,478,516,491.0,1
3043,466,516,492.0,1
3044,485,515,494.0,1
3045,512,515,492.0,1
3046,534,511,491.0,1
3047,495,512,491.0,1
3048,464,508,491.0,1
3049,468,502,493.0,1
3050,490,500,493.0,1
3051,534,507,491.0,1
3052,521,513,491.0,1
3053,485,515,490.0,1
3054,482,512,492.0,1
3055,498,506,493.0,1
3056,537,512,491.0,1
3057,548,517,491.0,1
3058,504,516,490.0,1
3059,478,507,491.0,1
3060,491,501,494.0,1
3061,517,500,492.0,1
3062,548,504,491.0,1
3063,516,509,490.0,1
3064,493,514,491.0,1
3065,506,515,493.0,1
3066,532,515,493.0,1
3067,566,516,491.0,1
3068,545,515,490.0,1
3069,506,516,490.0,1
3070,505,516,492.0,1
3071,519,507,493.0,1
3072,544,503,491.0,1
3073,549,504,490.0,1
3074,507,507,490.0,1
3075,497,512,491.0,1
3076,518,513,493.0,1
3077,547,515,492.0,1
3078,573,517,491.0,1
3079,533,516,490.0,1
3080,494,511,490.0,1
3081,504,510,493.0,1
3082,528,509,493.0,1
3083,558,509,491.0,1
3084,532,506,490.0,1
3085,483,503,490.0,1
3086,487,509,492.0,1
3087,514,514,493.0,1
3088,543,515,491.0,1
3089,549,518,490.0,1
3090,500,517,490.0,1
3091,480,516,491.0,1
3092,491,513,493.0,1
3093,511,509,492.0,1
3094,538,508,490.0,1
3095,495,505,490.0,1
3096,460,503,490.0,1
3097,464,501,493.0,1
3098,491,504,493.0,1
3099,535,512,491.0,1
3100,521,512,490.0,1
3101,476,510,490.0,1
3102,472,510,492.0,1
3103,496,513,493.0,1
3104,527,513,491.0,1
3105,538,510,490.0,1
3106,487,505,490.0,1
3107,463,502,491.0,1
3108,477,501,493.0,1
3109,506,505,492.0,1
3110,549,515,491.0,1
3111,519,517,490.0,1
3112,488,517,490.0,1
3113,490,513,492.0,1
3114,511,510,493.0,1
3115,548,515,491.0,1
3116,539,517,490.0,1
3117,496,516,490.0,1
3118,478,507,492.0,1
3119,492,502,493.0,1
3120,519,501,491.0,1
3121,545,511,490.0,1
3122,508,516,490.0,1
3123,489,516,491.0,1
3124,504,516,493.0,1
3125,528,516,492.0,1
3126,559,517,491.0,1
3127,527,518,490.0,1
3128,492,516,490.0,1
3129,486,507,493.0,1
3130,503,502,493.0,1
3131,535,503,491.0,1
3132,529,505,490.0,1
3133,493,511,490.0,1
3134,484,511,492.0,1
3135,502,508,493.0,1
3136,528,508,492.0,1
3137,551,514,491.0,1
3138,510,515,490.0,1
3139,485,512,491.0,1
3140,501,513,494.0,1
3141,519,510,493.0,1
3142,545,506,491.0,1
3143,512,504,490.0,1
3144,481,507,490.0,1
3145,493,514,493.0,1
3146,519,516,493.0,1
3147,550,517,492.0,1
3148,545,519,491.0,1
3149,502,518,490.0,1
3150,492,517,492.0,1
3151,509,514,494.0,1
3152,536,516,492.0,1
3153,549,511,491.0,1
3154,500,505,491.0,1
3155,473,502,491.0,1
3156,494,509,494.0,1
3157,523,513,493.0,1
3158,557,516,492.0,1
3159,527,514,491.0,1
3160,491,514,491.0,1
3161,494,514,493.0,1
3162,518,515,494.0,1
3163,548,516,492.0,1
3164,537,510,491.0,1
3165,487,504,491.0,1
3166,472,501,493.0,1
3167,490,500,495.0,1
3168,518,503,493.0,1
3169,548,511,492.0,1
3170,511,513,491.0,1
3171,489,514,492.0,1
3172,497,511,494.0,1
3173,517,509,494.0,1
3174,553,514,492.0,1
3175,529,515,492.0,1
3176,487,511,492.0,1
3177,479,504,494.0,1
3178,499,501,495.0,1
3179,535,507,493.0,1
3180,542,513,492.0,1
3181,499,512,492.0,1
3182,490,514,493.0,1
3183,506,512,495.0,1
3184,535,516,494.0,1
3185,554,514,493.0,1
3186,515,514,492.0,1
3187,488,513,493.0,1
3188,493,509,495.0,1
3189,509,503,495.0,1
3190,541,504,493.0,1
3191,523,508,492.0,1
3192,491,513,492.0,1
3193,493,513,495.0,1
3194,517,514,496.0,1
3195,545,516,494.0,1
3196,547,516,493.0,1
3197,505,516,493.0,1
3198,488,511,494.0,1
3199,503,507,496.0,1
3200,525,502,495.0,1
3201,549,504,494.0,1
3202,511,503,493.0,1
3203,490,506,493.0,1
3204,510,512,496.0,1
3205,537,514,496.0,1
3206,566,515,494.0,1
3207,549,517,493.0,1
3208,515,518,493.0,1
3209,515,518,496.0,1
3210,534,514,497.0,1
3211,551,507,495.0,1
3212,546,505,494.0,1
3213,497,503,494.0,1
3214,482,504,495.0,1
3215,504,509,497.0,1
3216,530,514,496.0,1
3217,553,518,494.0,1
3218,513,516,494.0,1
3219,484,515,494.0,1
3220,494,516,497.0,1
3221,515,516,497.0,1
3222,543,517,495.0,1
3223,516,510,494.0,1
3224,471,504,494.0,1
3225,464,501,496.0,1
3226,494,508,497.0,1
3227,523,511,496.0,1
3228,535,514,495.0,1
3229,495,515,494.0,1
3230,475,512,496.0,1
3231,484,508,498.0,1
3232,511,511,497.0,1
3233,547,515,495.0,1
3234,523,510,495.0,1
3235,511,503,495.0,1
3236,558,501,498.0,1
3237,638,500,498.0,1
3238,712,502,496.0,1
3239,715,503,495.0,1
3240,705,503,495.0,1
3241,697,502,497.0,1
3242,665,501,499.0,1
3243,610,502,497.0,1
3244,543,505,496.0,1
3245,459,503,495.0,1
3246,431,504,496.0,1
3247,442,505,499.0,1
3248,461,506,498.0,1
3249,482,507,496.0,1
3250,448,506,496.0,1
3251,426,511,496.0,1
3252,435,512,499.0,1
3253,456,511,499.0,1
3254,489,515,497.0,1
3255,481,517,496.0,1
3256,443,514,496.0,1
3257,442,515,498.0,1
3258,455,508,500.0,1
3259,476,504,497.0,1
3260,491,505,497.0,1
3261,463,512,496.0,1
3262,452,517,497.0,1
3263,470,517,500.0,1
3264,492,516,499.0,1
3265,519,516,497.0,1
3266,492,517,496.0,1
3267,466,516,497.0,1
3268,472,515,499.0,1
3269,485,507,500.0,1
3270,509,504,498.0,1
3271,501,504,497.0,1
3272,463,503,497.0,1
3273,465,507,499.0,1
3274,494,512,500.0,1
3275,522,515,498.0,1
3276,537,517,497.0,1
3277,500,516,497.0,1
3278,483,515,498.0,1
3279,499,515,500.0,1
3280,522,515,500.0,1
3281,539,510,498.0,1
3282,504,505,497.0,1
3283,473,503,497.0,1
3284,490,510,500.0,1
3285,519,514,501.0,1
3286,545,515,499.0,1
3287,539,517,498.0,1
3288,504,517,498.0,1
3289,499,516,500.0,1
3290,515,512,501.0,1
3291,533,507,500.0,1
3292,546,509,499.0,1
3293,507,507,498.0,1
3294,487,504,499.0,1
3295,501,501,501.0,1
3296,525,502,501.0,1
3297,553,508,499.0,1
3298,529,511,498.0,1
3299,502,512,498.0,1
3300,509,512,501.0,1
3301,532,512,502.0,1
3302,555,513,500.0,1
3303,543,511,499.0,1
3304,501,506,499.0,1
3305,490,502,500.0,1
3306,509,501,502.0,1
3307,530,501,501.0,1
3308,549,511,499.0,1
3309,516,515,499.0,1
3310,497,516,500.0,1
3311,509,515,502.0,1
3312,528,515,502.0,1
3313,548,517,500.0,1
3314,519,517,499.0,1
3315,483,515,499.0,1
3316,475,506,502.0,1
3317,489,502,503.0,1
3318,509,502,501.0,1
3319,512,509,500.0,1
3320,481,512,499.0,1
3321,473,513,501.0,1
3322,490,512,503.0,1
3323,507,510,502.0,1
3324,520,508,500.0,1
3325,489,511,500.0,1
3326,473,513,500.0,1
3327,480,507,503.0,1
3328,494,503,503.0,1
3329,518,503,501.0,1
3330,496,504,500.0,1
3331,469,507,500.0,1
3332,474,508,503.0,1
3333,500,512,503.0,1
3334,526,515,501.0,1
3335,527,518,501.0,1
3336,491,517,500.0,1
3337,482,516,502.0,1
3338,501,516,504.0,1
3339,512,508,502.0,1
3340,525,505,501.0,1
3341,489,503,501.0,1
3342,466,502,501.0,1
3343,487,509,504.0,1
3344,514,513,503.0,1
3345,537,514,502.0,1
3346,520,516,501.0,1
3347,490,516,501.0,1
3348,491,515,504.0,1
3349,508,511,504.0,1
3350,531,515,502.0,1
3351,525,510,501.0,1
3352,482,505,501.0,1
3353,469,502,503.0,1
3354,488,504,505.0,1
3355,511,506,503.0,1
3356,532,510,502.0,1
3357,502,511,502.0,1
3358,481,511,502.0,1
3359,495,514,505.0,1
3360,517,515,505.0,1
3361,539,516,503.0,1
3362,515,511,502.0,1
3363,476,505,502.0,1
3364,472,502,504.0,1
3365,490,501,506.0,1
3366,515,506,504.0,1
3367,527,514,502.0,1
3368,495,515,502.0,1
3369,484,514,503.0,1
3370,497,511,506.0,1
3371,519,514,505.0,1
3372,540,517,503.0,1
3373,512,517,503.0,1
3374,480,510,503.0,1
3375,482,503,506.0,1
3376,498,501,506.0,1
3377,522,503,504.0,1
3378,512,507,503.0,1
3379,488,513,503.0,1
3380,492,516,505.0,1
3381,513,516,507.0,1
3382,531,516,505.0,1
3383,532,512,504.0,1
3384,495,510,503.0,1
3385,483,511,504.0,1
3386,496,509,507.0,1
3387,510,506,506.0,1
3388,528,505,504.0,1
3389,499,504,504.0,1
3390,475,504,504.0,1
3391,484,505,507.0,1
3392,505,506,507.0,1
3393,533,512,505.0,1
3394,525,515,504.0,1
3395,495,515,504.0,1
3396,493,515,506.0,1
3397,502,507,508.0,1
3398,514,503,506.0,1
3399,522,504,504.0,1
3400,487,503,504.0,1
3401,483,510,505.0,1
3402,503,514,508.0,1
3403,524,516,507.0,1
3404,543,517,505.0,1
3405,516,517,504.0,1
3406,491,515,505.0,1
3407,498,515,507.0,1
3408,517,513,508.0,1
3409,529,507,506.0,1
3410,515,504,505.0,1
3411,479,502,505.0,1
3412,475,501,507.0,1
3413,502,507,508.0,1
3414,528,513,507.0,1
3415,539,517,506.0,1
3416,504,514,505.0,1
3417,487,512,506.0,1
3418,502,514,509.0,1
3419,516,511,508.0,1
3420,534,510,506.0,1
3421,507,508,506.0,1
3422,477,504,506.0,1
3423,482,503,508.0,1
3424,505,506,509.0,1
3425,534,513,507.0,1
3426,531,517,506.0,1
3427,501,517,506.0,1
3428,497,517,508.0,1
3429,514,516,509.0,1
3430,531,516,508.0,1
3431,542,518,507.0,1
3432,499,509,506.0,1
3433,477,503,507.0,1
3434,488,501,510.0,1
3435,506,500,509.0,1
3436,536,510,507.0,1
3437,520,515,506.0,1
3438,497,516,506.0,1
3439,506,516,509.0,1
3440,528,516,510.0,1
3441,548,517,508.0,1
3442,540,516,507.0,1
3443,509,516,506.0,1
3444,494,507,508.0,1
3445,508,502,510.0,1
3446,529,503,509.0,1
3447,542,505,507.0,1
3448,517,509,507.0,1
3449,507,513,508.0,1
3450,522,513,510.0,1
3451,538,511,509.0,1
3452,556,515,508.0,1
3453,530,516,507.0,1
3454,500,515,507.0,1
3455,498,512,510.0,1
3456,508,506,510.0,1
3457,519,503,509.0,1
3458,513,503,508.0,1
3459,479,502,507.0,1
3460,478,509,509.0,1
3461,501,514,511.0,1
3462,518,516,509.0,1
3463,530,517,508.0,1
3464,500,517,508.0,1
3465,483,517,508.0,1
3466,494,515,511.0,1
3467,501,506,510.0,1
3468,516,504,509.0,1
3469,496,503,508.0,1
3470,466,501,508.0,1
3471,474,507,510.0,1
3472,492,507,511.0,1
3473,521,514,509.0,1
3474,536,517,508.0,1
3475,526,517,508.0,1
3476,552,514,510.0,1
3477,626,515,512.0,1
3478,706,515,510.0,1
3479,737,509,509.0,1
3480,719,504,508.0,1
3481,696,502,509.0,1
3482,655,501,512.0,1
3483,609,506,511.0,1
3484,564,513,510.0,1
3485,501,516,509.0,1
3486,458,517,509.0,1
3487,454,516,511.0,1
3488,466,515,512.0,1
3489,476,512,510.0,1
3490,474,515,509.0,1
3491,436,509,509.0,1
3492,420,503,511.0,1
3493,433,501,513.0,1
3494,461,509,511.0,1
3495,481,513,510.0,1
3496,454,512,509.0,1
3497,438,512,510.0,1
3498,453,514,512.0,1
3499,475,516,512.0,1
3500,496,517,510.0,1
3501,478,513,509.0,1
3502,443,504,509.0,1
3503,442,501,512.0,1
3504,461,500,513.0,1
3505,481,501,511.0,1
3506,497,511,510.0,1
3507,474,515,510.0,1
3508,468,515,511.0,1
3509,484,513,513.0,1
3510,500,511,512.0,1
3511,516,513,510.0,1
3512,492,513,510.0,1
3513,472,512,510.0,1
3514,478,508,513.0,1
3515,492,503,513.0,1
3516,510,503,511.0,1
3517,503,508,510.0,1
3518,482,511,510.0,1
3519,486,513,512.0,1
3520,509,514,514.0,1
3521,526,514,512.0,1
3522,529,514,511.0,1
3523,502,517,510.0,1
3524,495,517,512.0,1
3525,511,516,514.0,1
3526,518,507,513.0,1
3527,527,504,511.0,1
3528,499,502,511.0,1
3529,489,510,511.0,1
3530,506,513,514.0,1
3531,519,507,514.0,1
3532,533,505,512.0,1
3533,519,505,511.0,1
3534,492,505,511.0,1
3535,493,503,513.0,1
3536,518,507,514.0,1
3537,535,507,513.0,1
3538,535,505,511.0,1
3539,502,503,511.0,1
3540,491,502,512.0,1
3541,516,509,515.0,1
3542,536,510,514.0,1
3543,549,512,512.0,1
3544,523,512,511.0,1
3545,508,515,512.0,1
3546,516,512,514.0,1
3547,533,511,514.0,1
3548,546,510,513.0,1
3549,527,508,512.0,1
3550,491,504,511.0,1
3551,486,502,514.0,1
3552,511,508,515.0,1
3553,531,514,513.0,1
3554,534,517,512.0,1
3555,500,516,512.0,1
3556,484,513,513.0,1
3557,497,512,515.0,1
3558,513,513,514.0,1
3559,527,515,513.0,1
3560,502,516,512.0,1
3561,472,509,512.0,1
3562,472,503,515.0,1
3563,487,501,515.0,1
3564,513,510,513.0,1
3565,510,515,512.0,1
3566,485,516,512.0,1
3567,483,516,514.0,1
3568,502,515,516.0,1
3569,514,514,514.0,1
3570,523,516,513.0,1
3571,495,517,513.0,1
3572,474,508,513.0,1
3573,481,503,516.0,1
3574,496,502,515.0,1
3575,513,503,514.0,1
3576,497,507,513.0,1
3577,481,512,513.0,1
3578,488,511,516.0,1
3579,511,514,516.0,1
3580,527,515,514.0,1
3581,520,515,513.0,1
3582,488,512,513.0,1
3583,484,511,515.0,1
3584,498,508,517.0,1
3585,508,503,515.0,1
3586,516,504,514.0,1
3587,491,507,513.0,1
3588,483,512,514.0,1
3589,499,513,517.0,1
3590,516,514,516.0,1
3591,534,516,514.0,1
3592,514,517,514.0,1
3593,491,517,513.0,1
3594,494,514,516.0,1
3595,503,506,517.0,1
3596,517,506,515.0,1
3597,509,504,514.0,1
3598,479,503,514.0,1
3599,485,511,515.0,1
3600,508,515,517.0,1
3601,525,516,516.0,1
3602,534,518,514.0,1
3603,502,515,514.0,1
3604,489,516,515.0,1
3605,503,516,517.0,1
3606,513,511,516.0,1
3607,523,507,515.0,1
3608,502,505,514.0,1
3609,476,502,514.0,1
3610,479,500,517.0,1
3611,500,502,517.0,1
3612,523,510,515.0,1
3613,525,515,515.0,1
3614,498,516,514.0,1
3615,490,514,516.0,1
3616,499,507,518.0,1
3617,518,510,516.0,1
3618,532,514,515.0,1
3619,501,511,515.0,1
3620,478,504,515.0,1
3621,487,501,518.0,1
3622,509,505,517.0,1
3623,533,513,515.0,1
3624,517,514,515.0,1
3625,497,516,515.0,1
3626,501,516,517.0,1
3627,519,516,518.0,1
3628,528,512,516.0,1
3629,523,511,515.0,1
3630,498,514,515.0,1
3631,484,507,516.0,1
3632,494,502,518.0,1
3633,507,501,517.0,1
3634,524,507,516.0,1
3635,506,514,515.0,1
3636,491,514,516.0,1
3637,504,514,518.0,1
3638,521,514,518.0,1
3639,538,517,516.0,1
3640,521,517,515.0,1
3641,493,512,515.0,1
3642,489,507,518.0,1
3643,501,502,519.0,1
3644,514,502,517.0,1
3645,515,503,516.0,1
3646,490,506,515.0,1
3647,491,512,517.0,1
3648,510,514,519.0,1
3649,524,514,518.0,1
3650,539,517,516.0,1
3651,513,517,516.0,1
3652,497,516,516.0,1
3653,503,512,519.0,1
3654,510,505,519.0,1
3655,523,503,517.0,1
3656,509,504,516.0,1
3657,483,503,516.0,1
3658,487,505,518.0,1
3659,506,506,519.0,1
3660,520,506,517.0,1
3661,520,507,516.0,1
3662,490,505,516.0,1
3663,481,504,517.0,1
3664,496,503,520.0,1
3665,511,503,518.0,1
3666,528,508,517.0,1
3667,504,509,516.0,1
3668,488,511,517.0,1
3669,497,510,519.0,1
3670,512,509,519.0,1
3671,529,510,518.0,1
3672,514,507,517.0,1
3673,485,504,516.0,1
3674,485,503,519.0,1
3675,502,503,520.0,1
3676,516,503,518.0,1
3677,524,506,517.0,1
3678,499,506,517.0,1
3679,493,508,518.0,1
3680,508,508,520.0,1
3681,520,505,519.0,1
3682,534,507,517.0,1
3683,512,507,517.0,1
3684,497,507,517.0,1
3685,509,506,520.0,1
3686,529,506,520.0,1
3687,545,507,518.0,1
3688,531,507,517.0,1
3689,505,507,517.0,1
3690,504,507,519.0,1
3691,519,508,521.0,1
3692,529,508,519.0,1
3693,529,508,518.0,1
3694,497,507,517.0,1
3695,482,507,518.0,1
3696,494,506,521.0,1
3697,508,507,520.0,1
3698,521,508,518.0,1
3699,498,509,517.0,1
3700,479,510,517.0,1
3701,484,509,520.0,1
3702,496,505,520.0,1
3703,509,505,519.0,1
3704,505,509,518.0,1
3705,479,508,517.0,1
3706,480,509,520.0,1
3707,496,508,521.0,1
3708,509,509,519.0,1
3709,512,509,518.0,1
3710,485,511,518.0,1
3711,479,511,519.0,1
3712,499,508,521.0,1
3713,527,506,520.0,1
3714,563,506,518.0,1
3715,588,506,518.0,1
3716,633,507,518.0,1
3717,702,509,521.0,1
3718,763,511,521.0,1
3719,774,512,519.0,1
3720,695,515,519.0,1
3721,598,516,518.0,1
3722,529,512,520.0,1
3723,503,515,522.0,1
3724,489,509,520.0,1
3725,480,507,519.0,1
3726,445,505,518.0,1
3727,437,512,519.0,1
3728,453,517,522.0,1
3729,467,517,521.0,1
3730,474,513,519.0,1
3731,453,511,519.0,1
3732,439,515,518.0,1
3733,448,516,521.0,1
3734,465,515,522.0,1
3735,482,517,520.0,1
3736,472,511,519.0,1
3737,441,505,518.0,1
3738,437,503,520.0,1
3739,459,507,522.0,1
3740,482,513,520.0,1
3741,495,516,519.0,1
3742,472,515,519.0,1
3743,463,515,519.0,1
3744,479,516,522.0,1
3745,495,516,521.0,1
3746,510,518,520.0,1
3747,486,511,519.0,1
3748,461,505,519.0,1
3749,465,502,522.0,1
3750,483,501,522.0,1
3751,503,507,520.0,1
3752,511,516,519.0,1
3753,490,517,519.0,1
3754,488,516,521.0,1
3755,506,516,523.0,1
3756,520,516,521.0,1
3757,529,517,520.0,1
3758,505,517,519.0,1
3759,484,509,520.0,1
3760,491,503,522.0,1
3761,504,501,522.0,1
3762,528,510,520.0,1
3763,518,515,519.0,1
3764,499,516,519.0,1
3765,505,515,522.0,1
3766,524,515,523.0,1
3767,539,516,521.0,1
3768,530,513,520.0,1
3769,506,513,519.0,1
3770,503,512,521.0,1
3771,517,509,523.0,1
3772,524,503,521.0,1
3773,530,503,520.0,1
3774,510,506,520.0,1
3775,504,512,520.0,1
3776,520,513,523.0,1
3777,540,515,522.0,1
3778,552,517,521.0,1
3779,535,517,520.0,1
3780,514,517,520.0,1
3781,516,513,522.0,1
3782,530,509,523.0,1
3783,535,504,521.0,1
3784,528,504,520.0,1
3785,500,503,520.0,1
3786,504,510,521.0,1
3787,527,515,524.0,1
3788,539,515,522.0,1
3789,541,515,521.0,1
3790,514,516,520.0,1
3791,497,516,521.0,1
3792,507,516,523.0,1
3793,517,513,523.0,1
3794,520,508,521.0,1
3795,497,505,520.0,1
3796,471,503,520.0,1
3797,475,506,523.0,1
3798,494,508,524.0,1
3799,510,512,522.0,1
3800,510,514,521.0,1
3801,484,514,520.0,1
3802,474,510,522.0,1
3803,492,512,524.0,1
3804,506,512,523.0,1
3805,516,514,521.0,1
3806,488,509,521.0,1
3807,467,504,521.0,1
3808,475,502,524.0,1
3809,496,505,524.0,1
3810,512,508,522.0,1
3811,498,506,521.0,1
3812,474,505,521.0,1
3813,477,505,523.0,1
3814,502,511,524.0,1
3815,514,511,522.0,1
3816,514,510,521.0,1
3817,484,507,521.0,1
3818,474,503,522.0,1
3819,488,501,525.0,1
3820,501,502,523.0,1
3821,516,507,522.0,1
3822,502,513,521.0,1
3823,487,514,521.0,1
3824,499,515,524.0,1
3825,515,514,524.0,1
3826,526,514,522.0,1
3827,512,512,521.0,1
3828,487,510,521.0,1
3829,483,505,523.0,1
3830,497,502,525.0,1
3831,509,502,523.0,1
3832,517,508,522.0,1
3833,499,514,521.0,1
3834,489,511,522.0,1
3835,506,513,525.0,1
3836,520,513,524.0,1
3837,533,516,522.0,1
3838,512,517,522.0,1
3839,494,515,522.0,1
3840,499,511,525.0,1
3841,509,507,525.0,1
3842,517,505,523.0,1
3843,506,505,522.0,1
3844,485,506,521.0,1
3845,490,510,524.0,1
3846,512,514,525.0,1
3847,522,512,523.0,1
3848,527,515,522.0,1
3849,504,516,522.0,1
3850,496,516,523.0,1
3851,510,515,525.0,1
3852,515,509,524.0,1
3853,520,505,523.0,1
3854,498,504,522.0,1
3855,479,503,522.0,1
3856,494,508,525.0,1
3857,516,512,525.0,1
3858,532,516,523.0,1
3859,525,517,522.0,1
3860,500,516,522.0,1
3861,495,512,524.0,1
3862,513,513,526.0,1
3863,526,514,524.0,1
3864,525,510,523.0,1
3865,494,505,522.0,1
3866,482,503,523.0,1
3867,499,506,526.0,1
3868,521,513,525.0,1
3869,531,513,523.0,1
3870,513,514,523.0,1
3871,497,515,523.0,1
3872,506,516,525.0,1
3873,521,515,526.0,1
3874,525,510,524.0,1
3875,520,512,523.0,1
3876,493,509,522.0,1
3877,485,503,524.0,1
3878,499,501,526.0,1
3879,520,509,524.0,1
3880,533,516,523.0,1
3881,509,516,523.0,1
3882,498,516,524.0,1
3883,511,515,526.0,1
3884,523,513,526.0,1
3885,535,516,524.0,1
3886,515,514,523.0,1
3887,486,506,523.0,1
3888,487,502,526.0,1
3889,502,501,526.0,1
3890,514,502,524.0,1
3891,518,510,523.0,1
3892,498,512,523.0,1
3893,500,516,525.0,1
3894,516,515,527.0,1
3895,519,509,525.0,1
3896,526,511,524.0,1
3897,507,514,523.0,1
3898,495,513,524.0,1
3899,502,508,527.0,1
3900,511,503,526.0,1
3901,521,503,524.0,1
3902,511,508,523.0,1
3903,496,512,523.0,1
3904,503,514,526.0,1
3905,523,516,527.0,1
3906,532,516,525.0,1
3907,527,516,524.0,1
3908,499,512,523.0,1
3909,498,514,525.0,1
3910,516,514,527.0,1
3911,523,510,526.0,1
3912,524,505,524.0,1
3913,501,504,524.0,1
3914,494,507,524.0,1
3915,517,514,527.0,1
3916,534,515,527.0,1
3917,546,516,525.0,1
3918,533,516,524.0,1
3919,517,516,524.0,1
3920,521,513,526.0,1
3921,538,512,527.0,1
3922,542,506,525.0,1
3923,534,505,524.0,1
3924,506,503,524.0,1
3925,498,502,526.0,1
3926,514,505,528.0,1
3927,529,511,526.0,1
3928,534,514,525.0,1
3929,510,516,524.0,1
3930,495,516,525.0,1
3931,505,516,527.0,1
3932,517,515,527.0,1
3933,525,516,525.0,1
3934,501,509,524.0,1
3935,473,503,524.0,1
3936,473,501,527.0,1
3937,496,506,528.0,1
3938,514,513,526.0,1
3939,516,516,525.0,1
3940,494,516,524.0,1
3941,486,513,526.0,1
3942,499,512,528.0,1
3943,510,513,527.0,1
3944,515,514,525.0,1
3945,493,513,524.0,1
3946,477,506,525.0,1
3947,495,502,528.0,1
3948,529,501,528.0,1
3949,583,510,526.0,1
3950,624,515,525.0,1
3951,668,516,525.0,1
3952,721,515,527.0,1
3953,762,514,528.0,1
3954,739,509,526.0,1
3955,653,506,525.0,1
3956,556,504,525.0,1
3957,490,502,526.0,1
3958,471,502,529.0,1
3959,470,501,527.0,1
3960,472,503,526.0,1
3961,450,507,525.0,1
3962,438,511,525.0,1
3963,449,514,528.0,1
3964,464,515,528.0,1
3965,474,515,526.0,1
3966,463,515,525.0,1
3967,440,511,525.0,1
3968,443,511,527.0,1
3969,456,507,529.0,1
3970,463,503,527.0,1
3971,466,504,526.0,1
3972,455,511,525.0,1
3973,455,515,526.0,1
3974,472,515,529.0,1
3975,485,514,528.0,1
3976,496,516,526.0,1
3977,481,516,525.0,1
3978,468,515,526.0,1
3979,476,513,528.0,1
3980,492,512,528.0,1
3981,497,508,527.0,1
3982,484,504,526.0,1
3983,464,504,525.0,1
3984,469,506,528.0,1
3985,494,511,529.0,1
3986,508,513,527.0,1
3987,512,515,526.0,1
3988,493,515,526.0,1
3989,487,515,527.0,1
3990,502,513,529.0,1
3991,517,515,528.0,1
3992,517,508,526.0,1
3993,493,504,526.0,1
3994,476,502,526.0,1
3995,485,501,529.0,1
3996,510,507,529.0,1
3997,529,514,527.0,1
3998,525,517,526.0,1
3999,506,517,526.0,1
4000,506,515,528.0,1
4001,517,508,530.0,1
4002,534,514,528.0,1
4003,538,517,526.0,1
4004,508,509,526.0,1
4005,495,503,527.0,1
4006,509,501,530.0,1
4007,533,509,529.0,1
4008,545,514,527.0,1
4009,528,515,526.0,1
4010,515,516,526.0,1
4011,526,516,529.0,1
4012,542,516,529.0,1
4013,547,513,528.0,1
4014,539,515,527.0,1
4015,518,514,526.0,1
4016,512,508,528.0,1
4017,523,504,530.0,1
4018,532,504,528.0,1
4019,535,508,527.0,1
4020,516,511,527.0,1
4021,508,511,527.0,1
4022,521,511,530.0,1
4023,532,512,529.0,1
4024,536,513,527.0,1
4025,514,512,527.0,1
4026,487,505,527.0,1
4027,487,502,529.0,1
4028,498,501,530.0,1
4029,505,502,528.0,1
4030,497,504,527.0,1
4031,480,509,527.0,1
4032,482,513,529.0,1
4033,498,513,531.0,1
4034,506,512,529.0,1
4035,512,515,527.0,1
4036,491,517,527.0,1
4037,482,516,528.0,1
4038,491,512,530.0,1
4039,494,505,530.0,1
4040,500,503,528.0,1
4041,483,503,527.0,1
4042,475,509,527.0,1
4043,487,511,530.0,1
4044,506,513,531.0,1
4045,516,514,529.0,1
4046,511,516,528.0,1
4047,490,515,527.0,1
4048,490,515,529.0,1
4049,507,515,531.0,1
4050,517,515,529.0,1
4051,512,509,528.0,1
4052,485,504,527.0,1
4053,473,502,528.0,1
4054,490,505,531.0,1
4055,509,509,530.0,1
4056,521,512,528.0,1
4057,510,516,528.0,1
4058,494,516,528.0,1
4059,500,514,530.0,1
4060,515,514,531.0,1
4061,524,514,529.0,1
4062,511,508,528.0,1
4063,483,503,528.0,1
4064,478,501,529.0,1
4065,493,501,531.0,1
4066,512,508,530.0,1
4067,522,513,529.0,1
4068,503,514,528.0,1
4069,494,516,529.0,1
4070,506,514,531.0,1
4071,520,514,531.0,1
4072,526,513,529.0,1
4073,514,515,528.0,1
4074,488,508,528.0,1
4075,487,503,531.0,1
4076,501,501,532.0,1
4077,513,505,529.0,1
4078,514,509,529.0,1
4079,498,514,528.0,1
4080,496,513,530.0,1
4081,508,509,532.0,1
4082,522,512,530.0,1
4083,529,516,529.0,1
4084,509,515,528.0,1
4085,499,517,529.0,1
4086,501,508,532.0,1
4087,507,502,531.0,1
4088,514,502,530.0,1
4089,510,510,529.0,1
4090,498,515,528.0,1
4091,504,516,531.0,1
4092,520,515,532.0,1
4093,520,509,530.0,1
4094,512,506,529.0,1
4095,489,505,529.0,1
4096,484,504,530.0,1
4097,498,503,532.0,1
4098,507,502,531.0,1
4099,513,503,529.0,1
4100,494,503,529.0,1
4101,490,509,529.0,1
4102,505,512,532.0,1
4103,523,514,532.0,1
4104,531,515,530.0,1
4105,519,516,529.0,1
4106,497,512,529.0,1
4107,499,511,531.0,1
4108,517,513,533.0,1
4109,519,509,531.0,1
4110,513,505,530.0,1
4111,488,503,529.0,1
4112,486,506,530.0,1
4113,504,507,533.0,1
4114,514,507,531.0,1
4115,524,511,530.0,1
4116,508,514,529.0,1
4117,496,515,530.0,1
4118,504,512,532.0,1
4119,518,512,532.0,1
4120,528,514,531.0,1
4121,514,511,530.0,1
4122,488,505,529.0,1
4123,488,503,532.0,1
4124,512,510,533.0,1
4125,526,514,531.0,1
4126,529,517,530.0,1
4127,508,516,529.0,1
4128,503,517,531.0,1
4129,517,517,533.0,1
4130,527,516,532.0,1
4131,529,513,531.0,1
4132,501,506,530.0,1
4133,483,502,530.0,1
4134,490,501,533.0,1
4135,504,501,533.0,1
4136,515,504,531.0,1
4137,517,514,530.0,1
4138,504,517,530.0,1
4139,506,515,532.0,1
4140,520,511,533.0,1
4141,535,516,532.0,1
4142,536,516,531.0,1
4143,513,513,530.0,1
4144,501,508,531.0,1
4145,512,504,534.0,1
4146,524,502,533.0,1
4147,538,507,531.0,1
4148,528,511,530.0,1
4149,517,512,530.0,1
4150,528,513,533.0,1
4151,542,513,534.0,1
4152,545,512,531.0,1
4153,532,513,531.0,1
4154,512,515,530.0,1
4155,509,514,532.0,1
4156,514,509,534.0,1
4157,510,503,532.0,1
4158,507,503,531.0,1
4159,492,509,530.0,1
4160,487,512,531.0,1
4161,495,509,534.0,1
4162,501,506,533.0,1
4163,511,510,531.0,1
4164,496,511,531.0,1
4165,478,508,531.0,1
4166,486,507,534.0,1
4167,499,506,534.0,1
4168,502,503,532.0,1
4169,496,505,531.0,1
4170,475,504,531.0,1
4171,472,504,533.0,1
4172,491,508,534.0,1
4173,504,509,533.0,1
4174,516,509,531.0,1
4175,514,509,531.0,1
4176,540,508,532.0,1
4177,606,509,534.0,1
4178,678,509,534.0,1
4179,724,510,532.0,1
4180,722,506,531.0,1
4181,694,504,531.0,1
4182,651,505,534.0,1
4183,608,512,535.0,1
4184,559,515,532.0,1
4185,510,516,531.0,1
4186,471,514,531.0,1
4187,459,513,533.0,1
4188,470,514,535.0,1
4189,473,513,533.0,1
4190,471,512,532.0,1
4191,443,506,531.0,1
4192,428,503,532.0,1
4193,439,502,535.0,1
4194,459,509,534.0,1
4195,473,514,532.0,1
4196,464,516,532.0,1
4197,451,516,531.0,1
4198,459,515,534.0,1
4199,474,513,535.0,1
4200,485,515,533.0,1
4201,483,516,532.0,1
4202,457,508,531.0,1
4203,451,503,533.0,1
4204,467,502,535.0,1
4205,476,502,534.0,1
4206,489,509,532.0,1
4207,478,514,532.0,1
4208,471,513,532.0,1
4209,487,514,535.0,1
4210,501,515,534.0,1
4211,508,516,532.0,1
4212,496,514,532.0,1
4213,483,515,531.0,1
4214,483,509,534.0,1
4215,492,503,535.0,1
4216,498,503,533.0,1
4217,502,508,532.0,1
4218,494,515,532.0,1
4219,498,517,533.0,1
4220,512,516,535.0,1
4221,523,516,534.0,1
4222,527,517,532.0,1
4223,510,517,532.0,1
4224,499,514,532.0,1
4225,513,515,535.0,1
4226,517,507,535.0,1
4227,519,503,533.0,1
4228,506,503,532.0,1
4229,500,510,532.0,1
4230,511,513,534.0,1
4231,530,514,536.0,1
4232,538,515,534.0,1
4233,536,516,532.0,1
4234,519,516,532.0,1
4235,518,516,534.0,1
4236,535,515,536.0,1
4237,535,507,534.0,1
4238,534,506,533.0,1
4239,515,506,532.0,1
4240,503,504,533.0,1
4241,514,503,535.0,1
4242,528,503,535.0,1
4243,536,505,533.0,1
4244,528,510,533.0,1
4245,510,509,532.0,1
4246,517,509,535.0,1
4247,531,508,536.0,1
4248,537,510,534.0,1
4249,529,510,533.0,1
4250,502,506,532.0,1
4251,494,503,534.0,1
4252,513,508,536.0,1
4253,521,510,535.0,1
4254,519,509,533.0,1
4255,497,509,533.0,1
4256,486,510,533.0,1
4257,496,510,536.0,1
4258,505,508,536.0,1
4259,510,511,534.0,1
4260,501,513,533.0,1
4261,478,509,533.0,1
4262,475,504,535.0,1
4263,488,502,537.0,1
4264,502,509,534.0,1
4265,505,514,533.0,1
4266,487,514,533.0,1
4267,483,514,534.0,1
4268,497,513,537.0,1
4269,510,515,535.0,1
4270,514,516,534.0,1
4271,491,510,533.0,1
4272,474,504,533.0,1
4273,481,502,536.0,1
4274,494,502,536.0,1
4275,500,503,534.0,1
4276,496,507,533.0,1
4277,487,512,533.0,1
4278,494,514,535.0,1
4279,510,514,537.0,1
4280,519,515,535.0,1
4281,518,516,534.0,1
4282,501,516,533.0,1
4283,493,513,534.0,1
4284,498,506,537.0,1
4285,503,502,536.0,1
4286,507,503,534.0,1
4287,500,510,534.0,1
4288,494,514,534.0,1
4289,506,515,537.0,1
4290,521,516,537.0,1
4291,526,516,535.0,1
4292,512,512,534.0,1
4293,496,513,534.0,1
4294,500,514,536.0,1
4295,516,514,537.0,1
4296,517,510,536.0,1
4297,509,505,534.0,1
4298,487,503,534.0,1
4299,489,509,535.0,1
4300,507,512,537.0,1
4301,514,510,536.0,1
4302,519,511,535.0,1
4303,502,510,534.0,1
4304,491,511,534.0,1
4305,500,511,537.0,1
4306,517,514,537.0,1
4307,519,511,536.0,1
4308,504,506,535.0,1
4309,484,503,534.0,1
4310,484,501,536.0,1
4311,504,505,538.0,1
4312,522,513,536.0,1
4313,525,517,535.0,1
4314,507,517,534.0,1
4315,501,517,535.0,1
4316,514,516,538.0,1
4317,523,515,537.0,1
4318,528,517,535.0,1
4319,503,510,535.0,1
4320,485,503,535.0,1
4321,491,502,537.0,1
4322,515,510,538.0,1
4323,527,515,536.0,1
4324,522,517,535.0,1
4325,502,515,534.0,1
4326,503,514,536.0,1
4327,519,515,538.0,1
4328,526,514,537.0,1
4329,526,515,535.0,1
4330,497,508,535.0,1
4331,484,503,535.0,1
4332,495,501,538.0,1
4333,505,500,538.0,1
4334,516,507,536.0,1
4335,511,514,535.0,1
4336,501,516,535.0,1
4337,509,516,538.0,1
4338,522,514,538.0,1
4339,527,514,536.0,1
4340,522,516,535.0,1
4341,506,516,535.0,1
4342,497,507,537.0,1
4343,508,502,539.0,1
4344,515,501,537.0,1
4345,517,503,536.0,1
4346,510,510,535.0,1
4347,509,515,536.0,1
4348,525,516,539.0,1
4349,540,516,538.0,1
4350,547,516,536.0,1
4351,534,515,535.0,1
4352,524,515,535.0,1
4353,531,515,538.0,1
4354,535,507,539.0,1
4355,532,502,537.0,1
4356,521,502,536.0,1
4357,509,510,535.0,1
4358,511,515,537.0,1
4359,521,514,539.0,1
4360,526,515,538.0,1
4361,524,517,536.0,1
4362,503,516,536.0,1
4363,490,513,536.0,1
4364,498,512,539.0,1
4365,500,507,539.0,1
4366,497,503,537.0,1
4367,484,502,536.0,1
4368,469,501,536.0,1
4369,480,505,538.0,1
4370,503,512,539.0,1
4371,511,514,537.0,1
4372,507,514,536.0,1
4373,491,515,536.0,1
4374,488,515,537.0,1
4375,500,515,540.0,1
4376,500,508,538.0,1
4377,505,505,537.0,1
4378,503,503,536.0,1
4379,519,503,536.0,1
4380,576,504,539.0,1
4381,645,503,539.0,1
4382,704,507,537.0,1
4383,723,511,536.0,1
4384,719,512,536.0,1
4385,681,511,539.0,1
4386,633,511,540.0,1
4387,574,511,538.0,1
4388,517,512,537.0,1
4389,467,507,536.0,1
4390,451,503,538.0,1
4391,458,502,540.0,1
4392,462,504,539.0,1
4393,464,509,537.0,1
4394,450,512,537.0,1
4395,441,513,537.0,1
4396,450,511,540.0,1
4397,460,509,540.0,1
4398,467,511,537.0,1
4399,461,513,537.0,1
4400,443,508,536.0,1
4401,444,504,539.0,1
4402,458,502,540.0,1
4403,464,502,538.0,1
4404,470,507,537.0,1
4405,463,512,537.0,1
4406,456,507,538.0,1
4407,477,511,540.0,1
4408,491,514,539.0,1
4409,496,515,538.0,1
4410,482,515,537.0,1
4411,476,516,537.0,1
4412,478,508,540.0,1
4413,485,503,540.0,1
4414,489,503,538.0,1
4415,482,503,537.0,1
4416,474,507,537.0,1
4417,483,511,539.0,1
4418,497,510,541.0,1
4419,508,513,539.0,1
4420,511,516,538.0,1
4421,498,516,537.0,1
4422,496,516,538.0,1
4423,506,511,541.0,1
4424,511,507,540.0,1
4425,511,504,538.0,1
4426,497,504,537.0,1
4427,492,507,537.0,1
4428,509,512,540.0,1
4429,523,512,540.0,1
4430,529,514,538.0,1
4431,516,511,538.0,1
4432,502,510,537.0,1
4433,512,515,540.0,1
4434,530,516,541.0,1
4435,530,510,539.0,1
4436,522,506,538.0,1
4437,503,503,538.0,1
4438,499,502,539.0,1
4439,521,508,541.0,1
4440,538,513,540.0,1
4441,544,515,538.0,1
4442,531,516,538.0,1
4443,520,515,538.0,1
4444,526,511,541.0,1
4445,542,513,541.0,1
4446,549,517,539.0,1
4447,532,512,538.0,1
4448,509,505,538.0,1
4449,508,502,540.0,1
4450,522,502,542.0,1
4451,536,509,540.0,1
4452,535,514,538.0,1
4453,518,516,538.0,1
4454,511,516,539.0,1
4455,523,516,541.0,1
4456,528,515,540.0,1
4457,527,516,539.0,1
4458,508,516,538.0,1
4459,487,510,538.0,1
4460,486,503,541.0,1
4461,494,502,542.0,1
4462,501,505,539.0,1
4463,499,512,538.0,1
4464,485,513,538.0,1
4465,486,512,540.0,1
4466,504,515,542.0,1
4467,510,516,540.0,1
4468,508,517,539.0,1
4469,490,515,538.0,1
4470,476,508,539.0,1
4471,484,502,542.0,1
4472,492,501,541.0,1
4473,497,502,539.0,1
4474,495,511,539.0,1
4475,490,516,539.0,1
4476,499,515,541.0,1
4477,511,514,542.0,1
4478,515,514,540.0,1
4479,510,517,539.0,1
4480,496,517,539.0,1
4481,497,516,540.0,1
4482,501,508,542.0,1
4483,501,503,541.0,1
4484,499,503,539.0,1
4485,483,503,539.0,1
4486,487,511,539.0,1
4487,506,515,542.0,1
4488,516,514,542.0,1
4489,518,513,540.0,1
4490,503,513,539.0,1
4491,490,512,539.0,1
4492,496,510,542.0,1
4493,513,513,542.0,1
4494,512,509,540.0,1
4495,501,505,539.0,1
4496,483,503,539.0,1
4497,488,506,541.0,1
4498,510,511,543.0,1
4499,520,514,541.0,1
4500,522,517,540.0,1
4501,507,517,539.0,1
4502,498,515,540.0,1
4503,503,509,542.0,1
4504,514,510,542.0,1
4505,513,508,540.0,1
4506,497,504,540.0,1
4507,483,503,539.0,1
4508,489,502,542.0,1
4509,508,506,543.0,1
4510,519,512,541.0,1
4511,518,515,540.0,1
4512,503,516,539.0,1
4513,502,516,541.0,1
4514,516,515,543.0,1
4515,522,515,542.0,1
4516,522,515,540.0,1
4517,497,507,540.0,1
4518,485,503,540.0,1
4519,496,503,543.0,1
4520,507,504,542.0,1
4521,510,504,541.0,1
4522,501,505,540.0,1
4523,494,509,540.0,1
4524,501,510,542.0,1
4525,513,509,543.0,1
4526,522,514,541.0,1
4527,517,512,540.0,1
4528,499,509,540.0,1
4529,495,504,541.0,1
4530,509,502,543.0,1
4531,518,501,542.0,1
4532,523,505,541.0,1
4533,518,512,540.0,1
4534,513,514,540.0,1
4535,526,514,543.0,1
4536,540,514,543.0,1
4537,548,515,541.0,1
4538,542,517,540.0,1
4539,530,516,540.0,1
4540,526,508,542.0,1
4541,535,506,544.0,1
4542,533,503,542.0,1
4543,524,504,541.0,1
4544,506,506,540.0,1
4545,507,510,541.0,1
4546,522,514,544.0,1
4547,526,515,543.0,1
4548,522,516,541.0,1
4549,503,516,540.0,1
4550,493,516,541.0,1
4551,500,515,543.0,1
4552,499,506,544.0,1
4553,496,503,541.0,1
4554,487,503,541.0,1
4555,484,511,540.0,1
4556,494,515,543.0,1
4557,508,516,544.0,1
4558,511,515,542.0,1
4559,510,517,541.0,1
4560,495,517,540.0,1
4561,490,516,542.0,1
4562,497,512,544.0,1
4563,506,512,543.0,1
4564,510,509,541.0,1
4565,507,504,541.0,1
4566,521,502,541.0,1
4567,582,510,544.0,1
4568,653,515,544.0,1
4569,708,516,542.0,1
4570,727,516,541.0,1
4571,728,516,541.0,1
4572,698,516,543.0,1
4573,646,516,544.0,1
4574,584,516,543.0,1
4575,517,509,542.0,1
4576,464,505,541.0,1
4577,450,503,542.0,1
4578,458,503,545.0,1
4579,460,502,543.0,1
4580,455,501,542.0,1
4581,439,502,541.0,1
4582,430,502,541.0,1
4583,441,503,544.0,1
4584,455,505,544.0,1
4585,459,505,542.0,1
4586,455,507,541.0,1
4587,441,505,541.0,1
4588,444,504,543.0,1
4589,460,504,545.0,1
4590,470,507,543.0,1
4591,476,513,542.0,1
4592,463,511,541.0,1
4593,465,514,542.0,1
4594,482,514,545.0,1
4595,491,514,544.0,1
4596,490,511,542.0,1
4597,481,513,541.0,1
4598,474,513,541.0,1
4599,479,509,544.0,1
4600,487,504,545.0,1
4601,489,503,542.0,1
4602,486,506,541.0,1
4603,484,514,541.0,1
4604,491,516,543.0,1
4605,507,516,545.0,1
4606,515,517,543.0,1
4607,514,517,542.0,1
4608,498,515,541.0,1
4609,495,514,542.0,1
4610,501,508,545.0,1
4611,506,503,544.0,1
4612,508,503,542.0,1
4613,496,503,542.0,1
4614,498,511,542.0,1
4615,511,514,544.0,1
4616,526,513,545.0,1
4617,527,512,543.0,1
4618,522,514,542.0,1
4619,512,515,541.0,1
4620,516,515,543.0,1
4621,527,511,545.0,1
4622,526,506,543.0,1
4623,521,504,542.0,1
4624,505,503,542.0,1
4625,508,508,543.0,1
4626,533,515,545.0,1
4627,545,516,544.0,1
4628,545,516,542.0,1
4629,532,517,542.0,1
4630,522,516,542.0,1
4631,531,515,544.0,1
4632,545,515,545.0,1
4633,546,516,543.0,1
4634,527,509,542.0,1
4635,506,503,542.0,1
4636,505,501,544.0,1
4637,529,509,545.0,1
4638,539,513,544.0,1
4639,534,516,542.0,1
4640,515,516,542.0,1
4641,508,516,543.0,1
4642,515,514,545.0,1
4643,522,515,545.0,1
4644,518,515,543.0,1
4645,494,508,542.0,1
4646,477,504,542.0,1
4647,478,502,545.0,1
4648,488,501,545.0,1
4649,491,504,543.0,1
4650,489,509,543.0,1
4651,477,510,542.0,1
4652,484,514,544.0,1
4653,497,514,546.0,1
4654,501,513,544.0,1
4655,498,513,543.0,1
4656,486,514,542.0,1
4657,477,510,543.0,1
4658,482,504,545.0,1
4659,491,504,545.0,1
4660,492,504,543.0,1
4661,483,504,543.0,1
4662,474,504,542.0,1
4663,487,509,545.0,1
4664,501,509,546.0,1
4665,505,510,544.0,1
4666,504,512,543.0,1
4667,489,511,542.0,1
4668,488,509,544.0,1
4669,499,507,546.0,1
4670,499,503,545.0,1
4671,498,503,543.0,1
4672,495,511,543.0,1
4673,494,516,543.0,1
4674,508,517,546.0,1
4675,518,516,545.0,1
4676,511,510,544.0,1
4677,501,511,543.0,1
4678,494,515,543.0,1
4679,499,514,545.0,1
4680,507,510,546.0,1
4681,503,504,544.0,1
4682,498,503,543.0,1
4683,483,502,543.0,1
4684,485,504,544.0,1
4685,503,506,546.0,1
4686,512,509,545.0,1
4687,516,512,544.0,1
4688,503,514,543.0,1
4689,497,515,543.0,1
4690,510,515,546.0,1
4691,520,514,546.0,1
4692,512,508,544.0,1
4693,497,504,543.0,1
4694,483,502,543.0,1
4695,500,510,545.0,1
4696,516,512,547.0,1
4697,514,509,544.0,1
4698,516,513,543.0,1
4699,507,516,543.0,1
4700,509,516,544.0,1
4701,523,514,547.0,1
4702,528,511,545.0,1
4703,529,513,544.0,1
4704,514,511,543.0,1
4705,501,506,544.0,1
4706,511,503,546.0,1
4707,530,506,546.0,1
4708,542,514,544.0,1
4709,533,515,543.0,1
4710,518,512,543.0,1
4711,525,513,546.0,1
4712,537,512,547.0,1
4713,534,510,545.0,1
4714,525,510,544.0,1
4715,505,509,543.0,1
4716,493,504,545.0,1
4717,500,502,547.0,1
4718,502,502,546.0,1
4719,503,506,544.0,1
4720,495,513,544.0,1
4721,485,514,544.0,1
4722,493,512,547.0,1
4723,504,513,547.0,1
4724,510,516,545.0,1
4725,503,517,544.0,1
4726,489,515,543.0,1
4727,482,507,546.0,1
4728,490,503,547.0,1
4729,491,501,545.0,1
4730,497,509,544.0,1
4731,488,514,544.0,1
4732,490,516,545.0,1
4733,511,517,547.0,1
4734,531,516,546.0,1
4735,548,515,544.0,1
4736,565,516,544.0,1
4737,601,517,544.0,1
4738,658,516,547.0,1
4739,708,508,547.0,1
4740,728,503,545.0,1
4741,700,503,544.0,1
4742,637,507,544.0,1
4743,575,507,546.0,1
4744,533,505,548.0,1
4745,499,508,546.0,1
4746,475,512,545.0,1
4747,457,512,544.0,1
4748,452,512,545.0,1
4749,462,512,547.0,1
4750,459,505,547.0,1
4751,454,503,545.0,1
4752,441,503,544.0,1
4753,431,502,544.0,1
4754,442,504,547.0,1
4755,461,509,547.0,1
4756,467,511,545.0,1
4757,466,514,544.0,1
4758,457,514,544.0,1
4759,460,514,546.0,1
4760,473,511,548.0,1
4761,481,513,546.0,1
4762,474,509,545.0,1
4763,457,504,544.0,1
4764,453,503,545.0,1
4765,476,509,548.0,1
4766,493,515,547.0,1
4767,497,516,545.0,1
4768,487,516,544.0,1
4769,481,515,544.0,1
4770,494,516,547.0,1
4771,506,515,548.0,1
4772,508,515,546.0,1
4773,498,512,545.0,1
4774,482,509,544.0,1
4775,482,505,546.0,1
4776,496,503,548.0,1
4777,504,504,546.0,1
4778,508,509,545.0,1
4779,501,513,544.0,1
4780,500,515,545.0,1
4781,514,514,548.0,1
4782,526,516,547.0,1
4783,526,517,545.0,1
4784,516,516,545.0,1
4785,500,508,545.0,1
4786,503,503,547.0,1
4787,515,502,548.0,1
4788,517,501,546.0,1
4789,519,508,545.0,1
4790,513,513,545.0,1
4791,518,515,546.0,1
4792,532,514,548.0,1
4793,538,515,547.0,1
4794,535,513,545.0,1
4795,524,515,545.0,1
4796,521,515,545.0,1
4797,524,507,548.0,1
4798,527,502,548.0,1
4799,525,502,546.0,1
4800,521,509,545.0,1
4801,516,511,545.0,1
4802,525,511,547.0,1
4803,533,508,548.0,1
4804,532,507,546.0,1
4805,520,505,545.0,1
4806,504,504,545.0,1
4807,503,504,547.0,1
4808,521,508,549.0,1
4809,521,508,547.0,1
4810,510,505,546.0,1
4811,492,504,545.0,1
4812,486,505,546.0,1
4813,503,510,548.0,1
4814,515,515,548.0,1
4815,511,514,546.0,1
4816,500,516,545.0,1
4817,489,517,545.0,1
4818,494,516,548.0,1
4819,504,515,549.0,1
4820,497,509,547.0,1
4821,486,505,546.0,1
4822,471,503,545.0,1
4823,471,502,547.0,1
4824,491,507,549.0,1
4825,504,513,547.0,1
4826,506,517,546.0,1
4827,493,516,546.0,1
4828,486,513,546.0,1
4829,498,512,549.0,1
4830,508,514,548.0,1
4831,508,515,546.0,1
4832,494,511,546.0,1
4833,479,504,545.0,1
4834,482,502,548.0,1
4835,500,507,549.0,1
4836,507,511,547.0,1
4837,503,511,546.0,1
4838,489,509,545.0,1
4839,489,507,547.0,1
4840,504,507,549.0,1
4841,509,508,548.0,1
4842,514,513,546.0,1
4843,505,515,546.0,1
4844,492,510,546.0,1
4845,497,504,549.0,1
4846,505,502,549.0,1
4847,509,506,547.0,1
4848,507,513,546.0,1
4849,498,514,546.0,1
4850,506,516,548.0,1
4851,522,518,549.0,1
4852,523,517,547.0,1
4853,518,518,546.0,1
4854,500,513,546.0,1
4855,492,508,547.0,1
4856,500,504,550.0,1
4857,501,502,548.0,1
4858,502,503,547.0,1
4859,502,511,546.0,1
4860,503,516,546.0,1
4861,515,516,549.0,1
4862,527,516,549.0,1
4863,529,516,547.0,1
4864,522,517,546.0,1
4865,514,516,546.0,1
4866,518,513,548.0,1
4867,524,507,550.0,1
4868,520,503,548.0,1
4869,517,502,547.0,1
4870,511,507,546.0,1
4871,514,508,547.0,1
4872,535,512,550.0,1
4873,544,514,549.0,1
4874,540,514,547.0,1
4875,520,510,546.0,1
4876,516,514,547.0,1
4877,521,514,549.0,1
4878,526,514,550.0,1
4879,516,510,547.0,1
4880,498,505,547.0,1
4881,481,502,546.0,1
4882,484,504,549.0,1
4883,502,510,550.0,1
4884,509,516,548.0,1
4885,507,517,547.0,1
4886,495,516,547.0,1
4887,493,515,548.0,1
4888,505,515,550.0,1
4889,510,515,549.0,1
4890,499,508,547.0,1
4891,485,504,547.0,1
4892,476,502,547.0,1
4893,482,502,550.0,1
4894,502,510,550.0,1
4895,513,515,548.0,1
4896,517,515,547.0,1
4897,526,515,546.0,1
4898,553,511,549.0,1
4899,600,510,551.0,1
4900,643,508,549.0,1
4901,676,509,547.0,1
4902,698,506,547.0,1
4903,714,503,548.0,1
4904,708,502,550.0,1
4905,657,506,550.0,1
4906,592,513,548.0,1
4907,528,514,547.0,1
4908,479,515,547.0,1
4909,467,517,550.0,1
4910,473,516,551.0,1
4911,472,516,548.0,1
4912,464,515,547.0,1
4913,453,516,547.0,1
4914,445,509,549.0,1
4915,447,502,551.0,1
4916,447,501,549.0,1
4917,457,510,548.0,1
4918,453,515,547.0,1
4919,453,515,548.0,1
4920,468,515,550.0,1
4921,476,513,550.0,1
4922,478,515,548.0,1
4923,470,515,547.0,1
4924,464,515,547.0,1
4925,466,508,550.0,1
4926,474,502,551.0,1
4927,474,501,548.0,1
4928,471,502,548.0,1
4929,467,506,547.0,1
4930,479,513,549.0,1
4931,496,513,551.0,1
4932,504,514,549.0,1
4933,497,512,548.0,1
4934,485,511,547.0,1
4935,486,514,548.0,1
4936,499,513,551.0,1
4937,500,507,550.0,1
4938,495,503,548.0,1
4939,488,503,548.0,1
4940,486,506,548.0,1
4941,502,512,550.0,1
4942,518,514,551.0,1
4943,522,516,549.0,1
4944,518,517,548.0,1
4945,510,516,547.0,1
4946,507,511,549.0,1
4947,514,505,551.0,1
4948,516,503,550.0,1
4949,512,502,548.0,1
4950,498,502,548.0,1
4951,493,501,548.0,1
4952,517,508,551.0,1
4953,531,512,551.0,1
4954,535,514,549.0,1
4955,521,511,548.0,1
4956,514,512,548.0,1
4957,526,515,551.0,1
4958,540,516,551.0,1
4959,538,514,549.0,1
4960,522,508,548.0,1
4961,504,503,548.0,1
4962,504,501,549.0,1
4963,519,502,552.0,1
4964,526,505,550.0,1
4965,529,511,549.0,1
4966,519,514,548.0,1
4967,516,514,548.0,1
4968,522,510,551.0,1
4969,533,513,551.0,1
4970,530,513,549.0,1
4971,518,514,548.0,1
4972,499,510,548.0,1
4973,496,504,551.0,1
4974,504,502,552.0,1
4975,508,506,550.0,1
4976,506,511,549.0,1
4977,489,511,548.0,1
4978,491,514,550.0,1
4979,503,515,552.0,1
4980,507,515,551.0,1
4981,508,518,549.0,1
4982,496,518,548.0,1
4983,490,517,549.0,1
4984,491,509,552.0,1
4985,494,504,551.0,1
4986,492,502,549.0,1
4987,494,511,549.0,1
4988,490,515,548.0,1
4989,498,516,551.0,1
4990,512,517,552.0,1
4991,513,516,550.0,1
4992,511,516,549.0,1
4993,496,514,548.0,1
4994,495,515,550.0,1
4995,498,507,552.0,1
4996,498,502,551.0,1
4997,498,503,549.0,1
4998,488,503,549.0,1
4999,489,506,549.0,1
5000,506,513,552.0,1
5001,513,513,552.0,1
5002,517,515,550.0,1
5003,512,517,549.0,1
5004,502,517,549.0,1
5005,506,516,551.0,1
5006,513,511,553.0,1
5007,508,506,550.0,1
5008,501,503,549.0,1
5009,487,502,549.0,1
5010,494,509,550.0,1
5011,516,514,553.0,1
5012,524,515,551.0,1
5013,525,517,550.0,1
5014,510,516,549.0,1
5015,499,516,549.0,1
5016,510,516,552.0,1
5017,524,515,552.0,1
5018,524,513,550.0,1
5019,510,507,549.0,1
5020,493,503,549.0,1
5021,496,501,551.0,1
5022,518,507,553.0,1
5023,527,512,551.0,1
5024,527,514,550.0,1
5025,519,513,549.0,1
5026,523,513,550.0,1
5027,532,509,553.0,1
5028,536,510,552.0,1
5029,537,512,550.0,1
5030,520,508,549.0,1
5031,503,503,550.0,1
5032,509,501,552.0,1
5033,517,501,553.0,1
5034,515,505,550.0,1
5035,510,513,550.0,1
5036,504,515,549.0,1
5037,508,516,552.0,1
5038,516,516,553.0,1
5039,509,513,551.0,1
5040,501,512,550.0,1
5041,493,515,549.0,1
5042,485,508,550.0,1
5043,494,504,553.0,1
5044,497,502,552.0,1
5045,498,506,550.0,1
5046,497,512,549.0,1
5047,495,512,550.0,1
5048,503,513,553.0,1
5049,513,515,553.0,1
5050,510,515,551.0,1
5051,503,516,550.0,1
5052,494,511,549.0,1
5053,517,512,551.0,1
5054,547,509,553.0,1
5055,568,503,551.0,1
5056,596,502,550.0,1
5057,635,510,550.0,1
5058,680,516,551.0,1
5059,729,515,553.0,1
5060,749,514,552.0,1
5061,716,516,551.0,1
5062,639,516,550.0,1
5063,569,516,550.0,1
5064,527,514,553.0,1
5065,490,505,553.0,1
5066,461,501,551.0,1
5067,452,501,550.0,1
5068,444,501,550.0,1
5069,454,508,552.0,1
5070,465,515,554.0,1
5071,465,516,552.0,1
5072,463,517,550.0,1
5073,452,514,550.0,1
5074,454,516,551.0,1
5075,470,516,553.0,1
5076,478,516,553.0,1
5077,469,509,551.0,1
5078,455,504,550.0,1
5079,445,502,550.0,1
5080,460,505,553.0,1
5081,479,511,553.0,1
5082,475,507,551.0,1
5083,477,513,550.0,1
5084,472,515,550.0,1
5085,480,514,552.0,1
5086,486,507,554.0,1
5087,481,503,552.0,1
5088,479,503,550.0,1
5089,468,503,550.0,1
5090,470,505,551.0,1
5091,485,503,553.0,1
5092,497,504,553.0,1
5093,501,510,551.0,1
5094,493,513,550.0,1
5095,486,511,550.0,1
5096,501,513,553.0,1
5097,517,513,553.0,1
5098,516,513,551.0,1
5099,510,511,550.0,1
5100,496,509,550.0,1
5101,492,503,552.0,1
5102,503,502,554.0,1
5103,508,502,552.0,1
5104,513,510,551.0,1
5105,509,515,550.0,1
5106,512,515,551.0,1
5107,525,512,553.0,1
5108,525,507,553.0,1
5109,528,511,551.0,1
5110,524,513,550.0,1
5111,512,512,550.0,1
5112,507,506,552.0,1
5113,517,502,553.0,1
5114,520,501,551.0,1
5115,524,508,550.0,1
5116,516,511,550.0,1
5117,516,512,552.0,1
5118,530,512,554.0,1
5119,537,511,552.0,1
5120,527,509,551.0,1
5121,513,509,550.0,1
5122,502,508,551.0,1
5123,513,509,553.0,1
5124,519,507,553.0,1
5125,510,504,551.0,1
5126,502,504,550.0,1
5127,494,507,550.0,1
5128,503,512,553.0,1
5129,515,514,554.0,1
5130,515,515,551.0,1
5131,512,516,550.0,1
5132,496,515,550.0,1
5133,491,512,551.0,1
5134,504,513,554.0,1
5135,498,508,552.0,1
5136,491,504,551.0,1
5137,479,503,550.0,1
5138,470,502,550.0,1
5139,486,508,553.0,1
5140,502,513,553.0,1
5141,506,516,551.0,1
5142,497,518,550.0,1
5143,487,517,550.0,1
5144,496,516,552.0,1
5145,509,514,554.0,1
5146,509,515,551.0,1
5147,493,509,550.0,1
5148,478,504,550.0,1
5149,480,503,551.0,1
5150,506,509,553.0,1
5151,514,514,552.0,1
5152,509,516,551.0,1
5153,495,513,550.0,1
5154,491,511,550.0,1
5155,504,513,553.0,1
5156,512,512,553.0,1
5157,512,513,551.0,1
5158,504,512,550.0,1
5159,489,507,550.0,1
5160,492,502,552.0,1
5161,506,501,554.0,1
5162,511,507,551.0,1
5163,513,514,550.0,1
5164,504,516,550.0,1
5165,504,515,551.0,1
5166,517,515,553.0,1
5167,526,516,552.0,1
5168,524,516,551.0,1
5169,505,515,550.0,1
5170,489,507,550.0,1
5171,494,502,553.0,1
5172,506,501,553.0,1
5173,503,500,551.0,1
5174,508,509,550.0,1
5175,510,512,550.0,1
5176,520,515,552.0,1
5177,532,516,554.0,1
5178,530,515,551.0,1
5179,520,511,550.0,1
5180,515,512,550.0,1
5181,521,513,551.0,1
5182,527,509,553.0,1
5183,525,503,552.0,1
5184,520,502,551.0,1
5185,510,505,550.0,1
5186,504,507,550.0,1
5187,514,508,553.0,1
5188,521,508,553.0,1
5189,521,513,551.0,1
5190,514,514,550.0,1
5191,506,515,550.0,1
5192,501,512,552.0,1
5193,508,511,553.0,1
5194,504,507,551.0,1
5195,491,504,550.0,1
5196,475,503,550.0,1
5197,485,510,551.0,1
5198,507,515,553.0,1
5199,514,516,552.0,1
5200,511,517,551.0,1
5201,500,516,550.0,1
5202,496,516,550.0,1
5203,505,516,553.0,1
5204,509,513,553.0,1
5205,497,505,551.0,1
5206,492,503,550.0,1
5207,490,502,550.0,1
5208,511,502,552.0,1
5209,558,511,553.0,1
5210,595,514,552.0,1
5211,625,517,550.0,1
5212,648,515,550.0,1
5213,684,513,551.0,1
5214,728,515,553.0,1
5215,737,516,552.0,1
5216,687,513,551.0,1
5217,605,509,550.0,1
5218,536,504,550.0,1
5219,494,502,552.0,1
5220,470,505,553.0,1
5221,460,508,551.0,1
5222,454,510,550.0,1
5223,449,513,550.0,1
5224,452,514,551.0,1
5225,462,512,553.0,1
5226,463,506,551.0,1
5227,456,505,550.0,1
5228,440,504,550.0,1
5229,432,503,550.0,1
5230,445,504,553.0,1
5231,456,503,552.0,1
5232,465,508,550.0,1
5233,465,513,550.0,1
5234,457,510,549.0,1
5235,467,511,552.0,1
5236,483,514,553.0,1
5237,483,513,551.0,1
5238,475,510,550.0,1
5239,469,510,549.0,1
5240,472,508,551.0,1
5241,483,504,553.0,1
5242,482,502,551.0,1
5243,479,503,550.0,1
5244,473,507,549.0,1
5245,479,512,550.0,1
5246,495,510,553.0,1
5247,503,509,552.0,1
5248,498,509,550.0,1
5249,493,510,550.0,1
5250,490,510,549.0,1
5251,493,509,552.0,1
5252,503,507,553.0,1
5253,500,504,551.0,1
5254,497,504,550.0,1
5255,489,506,549.0,1
5256,500,511,551.0,1
5257,522,515,553.0,1
5258,529,516,551.0,1
5259,525,515,550.0,1
5260,512,515,549.0,1
5261,507,515,550.0,1
5262,522,515,552.0,1
