TimeStamp,ECG Data,EMG Data,EDA Data,label
0,488,502,613.0,1
1,495,503,614.0,1
2,503,504,615.0,1
3,512,508,613.0,1
4,516,510,612.0,1
5,511,510,612.0,1
6,500,511,611.0,1
7,493,514,611.0,1
8,494,515,613.0,1
9,504,514,614.0,1
10,509,510,612.0,1
11,513,512,611.0,1
12,499,512,610.0,1
13,491,510,611.0,1
14,501,509,613.0,1
15,517,510,612.0,1
16,527,514,610.0,1
17,515,513,609.0,1
18,506,512,609.0,1
19,516,509,611.0,1
20,534,510,612.0,1
21,545,512,610.0,1
22,537,512,609.0,1
23,518,510,608.0,1
24,515,509,610.0,1
25,525,509,611.0,1
26,531,510,609.0,1
27,526,510,608.0,1
28,508,512,608.0,1
29,494,512,608.0,1
30,500,512,610.0,1
31,503,509,609.0,1
32,509,512,608.0,1
33,494,511,607.0,1
34,482,512,607.0,1
35,486,512,609.0,1
36,495,510,609.0,1
37,503,510,607.0,1
38,500,510,607.0,1
39,484,510,606.0,1
40,482,510,608.0,1
41,495,511,609.0,1
42,503,512,607.0,1
43,506,511,606.0,1
44,486,508,605.0,1
45,485,511,606.0,1
46,505,512,608.0,1
47,531,512,607.0,1
48,554,507,606.0,1
49,580,508,605.0,1
50,619,508,605.0,1
51,681,509,607.0,1
52,735,508,608.0,1
53,749,509,606.0,1
54,682,512,605.0,1
55,593,512,605.0,1
56,530,511,606.0,1
57,494,510,607.0,1
58,482,512,606.0,1
59,482,514,604.0,1
60,464,513,604.0,1
61,451,512,604.0,1
62,458,512,606.0,1
63,466,512,606.0,1
64,471,511,604.0,1
65,457,507,604.0,1
66,445,508,603.0,1
67,447,507,605.0,1
68,465,511,606.0,1
69,472,510,604.0,1
70,474,510,603.0,1
71,463,513,603.0,1
72,460,513,604.0,1
73,472,512,606.0,1
74,484,513,604.0,1
75,492,513,603.0,1
76,481,514,602.0,1
77,471,513,603.0,1
78,472,505,605.0,1
79,487,508,604.0,1
80,501,512,603.0,1
81,494,512,602.0,1
82,473,505,602.0,1
83,478,506,604.0,1
84,494,509,604.0,1
85,506,510,603.0,1
86,507,510,602.0,1
87,493,511,601.0,1
88,488,509,602.0,1
89,500,509,604.0,1
90,509,508,603.0,1
91,517,508,601.0,1
92,506,511,601.0,1
93,496,511,601.0,1
94,499,506,603.0,1
95,515,508,603.0,1
96,530,513,601.0,1
97,523,514,600.0,1
98,507,512,600.0,1
99,506,510,602.0,1
100,517,508,603.0,1
101,529,510,601.0,1
102,531,511,600.0,1
103,512,509,599.0,1
104,511,512,601.0,1
105,524,512,602.0,1
106,537,514,601.0,1
107,541,512,600.0,1
108,527,513,599.0,1
109,519,514,599.0,1
110,527,514,602.0,1
111,535,510,601.0,1
112,539,508,599.0,1
113,532,510,599.0,1
114,516,511,598.0,1
115,515,510,600.0,1
116,525,507,601.0,1
117,539,512,599.0,1
118,540,514,598.0,1
119,517,514,598.0,1
120,504,509,599.0,1
121,513,509,600.0,1
122,524,511,599.0,1
123,528,512,598.0,1
124,502,508,598.0,1
125,488,510,598.0,1
126,496,512,600.0,1
127,505,511,599.0,1
128,512,509,597.0,1
129,503,510,597.0,1
130,484,511,597.0,1
131,485,513,598.0,1
132,496,511,599.0,1
133,503,509,597.0,1
134,509,512,596.0,1
135,489,513,596.0,1
136,475,509,597.0,1
137,476,502,599.0,1
138,485,500,597.0,1
139,498,502,596.0,1
140,483,502,596.0,1
141,468,502,596.0,1
142,482,508,598.0,1
143,500,511,598.0,1
144,515,513,596.0,1
145,505,510,595.0,1
146,478,504,595.0,1
147,481,507,596.0,1
148,497,509,597.0,1
149,509,508,595.0,1
150,512,506,595.0,1
151,492,507,594.0,1
152,484,509,595.0,1
153,493,508,597.0,1
154,504,507,596.0,1
155,518,509,594.0,1
156,502,509,594.0,1
157,483,505,594.0,1
158,485,504,596.0,1
159,501,507,596.0,1
160,518,511,594.0,1
161,511,510,593.0,1
162,486,507,593.0,1
163,484,508,594.0,1
164,499,510,595.0,1
165,516,513,594.0,1
166,521,512,593.0,1
167,495,510,592.0,1
168,488,513,593.0,1
169,499,514,595.0,1
170,512,514,594.0,1
171,524,512,592.0,1
172,510,515,592.0,1
173,490,513,591.0,1
174,490,510,594.0,1
175,499,506,594.0,1
176,520,510,592.0,1
177,519,512,591.0,1
178,498,512,591.0,1
179,492,510,592.0,1
180,506,510,593.0,1
181,526,514,592.0,1
182,537,516,591.0,1
183,511,513,590.0,1
184,495,508,591.0,1
185,509,508,593.0,1
186,531,509,592.0,1
187,550,510,590.0,1
188,531,510,590.0,1
189,511,511,589.0,1
190,515,513,592.0,1
191,525,510,592.0,1
192,537,508,590.0,1
193,533,513,589.0,1
194,504,515,589.0,1
195,493,514,590.0,1
196,497,511,591.0,1
197,509,511,590.0,1
198,518,511,588.0,1
199,488,509,588.0,1
200,467,506,589.0,1
201,476,508,591.0,1
202,496,513,590.0,1
203,519,516,588.0,1
204,499,510,588.0,1
205,476,510,588.0,1
206,481,513,590.0,1
207,496,513,590.0,1
208,515,513,588.0,1
209,511,510,587.0,1
210,485,512,587.0,1
211,476,512,588.0,1
212,488,509,590.0,1
213,512,506,588.0,1
214,544,506,587.0,1
215,554,509,587.0,1
216,588,511,587.0,1
217,649,508,589.0,1
218,716,509,588.0,1
219,746,514,587.0,1
220,693,515,587.0,1
221,609,513,586.0,1
222,547,509,589.0,1
223,509,506,589.0,1
224,499,511,587.0,1
225,489,510,586.0,1
226,459,508,586.0,1
227,451,512,587.0,1
228,462,514,589.0,1
229,475,513,587.0,1
230,486,510,586.0,1
231,465,512,586.0,1
232,450,514,586.0,1
233,457,513,588.0,1
234,466,508,587.0,1
235,492,510,586.0,1
236,482,512,585.0,1
237,457,510,585.0,1
238,455,509,587.0,1
239,467,506,587.0,1
240,492,510,586.0,1
241,502,512,585.0,1
242,476,512,585.0,1
243,463,509,586.0,1
244,478,512,587.0,1
245,497,513,586.0,1
246,517,513,585.0,1
247,491,510,584.0,1
248,472,509,585.0,1
249,476,507,587.0,1
250,494,509,586.0,1
251,518,510,585.0,1
252,509,510,584.0,1
253,486,510,584.0,1
254,483,507,586.0,1
255,500,508,586.0,1
256,523,511,585.0,1
257,533,514,584.0,1
258,507,515,584.0,1
259,495,512,585.0,1
260,502,508,586.0,1
261,519,508,585.0,1
262,541,511,584.0,1
263,521,513,583.0,1
264,500,510,584.0,1
265,506,510,586.0,1
266,523,511,585.0,1
267,548,513,584.0,1
268,534,510,583.0,1
269,509,510,583.0,1
270,510,512,585.0,1
271,526,512,586.0,1
272,544,511,584.0,1
273,548,511,583.0,1
274,518,509,583.0,1
275,507,509,584.0,1
276,517,508,585.0,1
277,529,503,584.0,1
278,545,503,583.0,1
279,519,502,582.0,1
280,497,501,583.0,1
281,502,501,585.0,1
282,528,508,584.0,1
283,556,513,583.0,1
284,542,513,582.0,1
285,510,511,582.0,1
286,502,507,584.0,1
287,514,507,585.0,1
288,533,507,583.0,1
289,540,510,582.0,1
290,508,510,582.0,1
291,495,511,583.0,1
292,504,512,584.0,1
293,518,512,583.0,1
294,534,511,582.0,1
295,509,511,581.0,1
296,488,513,582.0,1
297,490,512,584.0,1
298,501,509,583.0,1
299,524,509,582.0,1
300,516,511,581.0,1
301,488,512,581.0,1
302,478,507,583.0,1
303,493,508,584.0,1
304,516,511,582.0,1
305,528,513,581.0,1
306,497,511,581.0,1
307,476,505,582.0,1
308,483,503,583.0,1
309,504,506,582.0,1
310,531,510,581.0,1
311,510,510,580.0,1
312,489,512,581.0,1
313,492,512,583.0,1
314,505,511,583.0,1
315,527,509,581.0,1
316,519,507,580.0,1
317,492,509,580.0,1
318,487,509,582.0,1
319,495,505,583.0,1
320,519,507,581.0,1
321,533,510,580.0,1
322,505,510,580.0,1
323,488,508,581.0,1
324,494,506,582.0,1
325,513,508,581.0,1
326,542,514,580.0,1
327,522,514,580.0,1
328,497,512,580.0,1
329,500,513,582.0,1
330,514,513,582.0,1
331,539,514,580.0,1
332,529,510,579.0,1
333,499,509,579.0,1
334,494,511,581.0,1
335,507,512,582.0,1
336,522,509,580.0,1
337,537,510,579.0,1
338,509,511,579.0,1
339,494,512,580.0,1
340,502,512,582.0,1
341,519,512,581.0,1
342,545,514,579.0,1
343,525,514,579.0,1
344,499,513,579.0,1
345,499,512,581.0,1
346,512,510,581.0,1
347,537,512,580.0,1
348,535,512,579.0,1
349,499,506,579.0,1
350,491,505,580.0,1
351,510,509,582.0,1
352,533,512,580.0,1
353,545,509,579.0,1
354,516,507,579.0,1
355,505,512,579.0,1
356,518,513,581.0,1
357,537,510,580.0,1
358,562,510,579.0,1
359,547,513,579.0,1
360,521,512,579.0,1
361,516,508,581.0,1
362,529,507,581.0,1
363,552,511,579.0,1
364,547,512,579.0,1
365,514,512,578.0,1
366,498,509,580.0,1
367,509,512,581.0,1
368,523,512,580.0,1
369,537,514,579.0,1
370,504,512,578.0,1
371,486,513,579.0,1
372,491,513,581.0,1
373,502,511,580.0,1
374,523,509,579.0,1
375,510,512,578.0,1
376,485,512,578.0,1
377,484,512,580.0,1
378,493,509,581.0,1
379,514,507,579.0,1
380,516,508,578.0,1
381,488,510,578.0,1
382,474,508,579.0,1
383,482,506,581.0,1
384,512,511,579.0,1
385,544,513,578.0,1
386,535,510,578.0,1
387,548,509,579.0,1
388,603,509,580.0,1
389,675,510,580.0,1
390,725,513,578.0,1
391,708,510,578.0,1
392,658,503,578.0,1
393,599,499,580.0,1
394,552,498,580.0,1
395,526,502,578.0,1
396,500,509,578.0,1
397,461,509,577.0,1
398,444,505,579.0,1
399,450,503,580.0,1
400,464,504,579.0,1
401,486,508,578.0,1
402,466,514,577.0,1
403,445,511,578.0,1
404,457,518,580.0,1
405,467,514,579.0,1
406,492,512,578.0,1
407,474,506,577.0,1
408,445,502,577.0,1
409,441,500,579.0,1
410,454,500,579.0,1
411,483,505,578.0,1
412,494,507,577.0,1
413,467,507,577.0,1
414,456,506,578.0,1
415,466,506,580.0,1
416,481,503,578.0,1
417,507,506,577.0,1
418,489,510,576.0,1
419,468,507,577.0,1
420,474,506,579.0,1
421,492,508,578.0,1
422,519,508,577.0,1
423,505,506,576.0,1
424,476,502,576.0,1
425,472,500,578.0,1
426,488,501,579.0,1
427,516,506,577.0,1
428,529,511,576.0,1
429,503,512,576.0,1
430,491,511,577.0,1
431,498,508,578.0,1
432,520,511,577.0,1
433,543,512,576.0,1
434,520,512,575.0,1
435,494,507,576.0,1
436,494,502,578.0,1
437,509,501,577.0,1
438,543,510,576.0,1
439,536,514,575.0,1
440,512,514,575.0,1
441,508,512,577.0,1
442,522,511,578.0,1
443,541,510,576.0,1
444,548,512,575.0,1
445,521,512,575.0,1
446,505,507,576.0,1
447,513,503,578.0,1
448,530,501,576.0,1
449,548,503,576.0,1
450,531,509,575.0,1
451,514,511,575.0,1
452,522,512,577.0,1
453,539,513,577.0,1
454,560,515,575.0,1
455,546,515,575.0,1
456,518,514,575.0,1
457,516,513,577.0,1
458,520,506,578.0,1
459,533,503,576.0,1
460,534,504,575.0,1
461,509,510,575.0,1
462,500,514,576.0,1
463,509,515,578.0,1
464,523,514,576.0,1
465,540,516,575.0,1
466,514,515,575.0,1
467,490,515,575.0,1
468,490,512,577.0,1
469,504,513,577.0,1
470,519,508,575.0,1
471,504,504,575.0,1
472,475,502,575.0,1
473,477,508,577.0,1
474,495,513,578.0,1
475,513,513,576.0,1
476,523,513,575.0,1
477,492,509,575.0,1
478,482,511,576.0,1
479,493,512,578.0,1
480,509,513,577.0,1
481,525,510,576.0,1
482,498,504,575.0,1
483,475,502,575.0,1
484,477,500,578.0,1
485,491,501,577.0,1
486,518,506,576.0,1
487,520,514,575.0,1
488,497,515,575.0,1
489,492,514,577.0,1
490,505,514,578.0,1
491,524,515,576.0,1
492,535,515,575.0,1
493,499,508,575.0,1
494,479,502,576.0,1
495,485,501,578.0,1
496,509,508,576.0,1
497,534,514,575.0,1
498,516,514,575.0,1
499,498,515,575.0,1
500,500,514,577.0,1
501,513,513,577.0,1
502,532,512,575.0,1
503,529,513,575.0,1
504,501,512,574.0,1
505,489,507,576.0,1
506,497,505,577.0,1
507,514,505,576.0,1
508,528,508,575.0,1
509,504,510,574.0,1
510,486,506,575.0,1
511,496,507,577.0,1
512,511,508,576.0,1
513,532,510,575.0,1
514,514,511,574.0,1
515,493,512,574.0,1
516,488,505,576.0,1
517,498,501,576.0,1
518,520,502,575.0,1
519,520,504,574.0,1
520,500,508,574.0,1
521,501,511,576.0,1
522,517,511,577.0,1
523,532,511,575.0,1
524,544,513,574.0,1
525,523,512,574.0,1
526,517,513,575.0,1
527,527,511,577.0,1
528,535,505,576.0,1
529,549,503,574.0,1
530,528,503,574.0,1
531,511,508,574.0,1
532,518,512,576.0,1
533,531,513,576.0,1
534,545,514,574.0,1
535,532,512,574.0,1
536,496,507,574.0,1
537,485,505,575.0,1
538,494,506,576.0,1
539,505,506,575.0,1
540,523,514,574.0,1
541,498,513,573.0,1
542,478,508,574.0,1
543,482,505,576.0,1
544,495,506,575.0,1
545,520,511,574.0,1
546,508,513,573.0,1
547,486,512,573.0,1
548,486,510,575.0,1
549,500,512,576.0,1
550,517,514,574.0,1
551,509,509,573.0,1
552,484,505,573.0,1
553,487,506,575.0,1
554,517,509,576.0,1
555,552,506,574.0,1
556,589,505,573.0,1
557,609,505,573.0,1
558,651,510,574.0,1
559,705,511,576.0,1
560,732,506,575.0,1
561,700,506,574.0,1
562,612,511,573.0,1
563,551,529,573.0,1
564,520,538,575.0,1
565,506,540,576.0,1
566,511,538,574.0,1
567,511,538,573.0,1
568,486,536,573.0,1
569,461,521,575.0,1
570,458,510,576.0,1
571,481,521,574.0,1
572,492,520,573.0,1
573,459,508,573.0,1
574,438,502,574.0,1
575,446,503,576.0,1
576,457,501,575.0,1
577,477,502,573.0,1
578,468,502,573.0,1
579,450,501,573.0,1
580,451,501,575.0,1
581,463,499,575.0,1
582,480,500,574.0,1
583,486,501,573.0,1
584,467,503,573.0,1
585,460,501,574.0,1
586,472,501,576.0,1
587,487,503,574.0,1
588,503,504,573.0,1
589,487,506,573.0,1
590,471,503,574.0,1
591,478,503,576.0,1
592,490,502,575.0,1
593,508,503,574.0,1
594,499,503,573.0,1
595,480,503,573.0,1
596,481,501,575.0,1
597,498,504,576.0,1
598,515,506,574.0,1
599,516,504,573.0,1
600,493,503,573.0,1
601,489,504,574.0,1
602,505,507,576.0,1
603,525,512,574.0,1
604,536,512,574.0,1
605,519,512,573.0,1
606,507,513,574.0,1
607,514,511,576.0,1
608,525,509,575.0,1
609,542,512,574.0,1
610,527,509,573.0,1
611,502,503,573.0,1
612,502,502,575.0,1
613,514,501,576.0,1
614,532,505,574.0,1
615,540,512,574.0,1
616,521,514,573.0,1
617,516,514,575.0,1
618,529,514,576.0,1
619,542,515,575.0,1
620,550,516,574.0,1
621,523,509,574.0,1
622,503,504,574.0,1
623,508,502,576.0,1
624,520,501,576.0,1
625,533,504,574.0,1
626,527,510,574.0,1
627,513,514,574.0,1
628,513,515,576.0,1
629,523,514,576.0,1
630,531,514,575.0,1
631,531,516,574.0,1
632,503,513,574.0,1
633,486,506,575.0,1
634,491,505,577.0,1
635,497,503,575.0,1
636,510,507,574.0,1
637,497,512,574.0,1
638,479,509,575.0,1
639,488,512,577.0,1
640,501,513,576.0,1
641,514,515,575.0,1
642,506,515,574.0,1
643,489,516,574.0,1
644,488,515,576.0,1
645,490,507,577.0,1
646,496,503,575.0,1
647,500,503,575.0,1
648,490,510,574.0,1
649,488,514,576.0,1
650,499,515,577.0,1
651,510,515,576.0,1
652,521,516,575.0,1
653,506,516,575.0,1
654,492,515,575.0,1
655,497,514,577.0,1
656,499,506,577.0,1
657,507,503,576.0,1
658,501,504,575.0,1
659,483,504,575.0,1
660,481,502,577.0,1
661,492,502,578.0,1
662,502,502,576.0,1
663,510,505,575.0,1
664,492,506,575.0,1
665,482,503,576.0,1
666,489,502,578.0,1
667,502,505,577.0,1
668,519,511,576.0,1
669,500,507,576.0,1
670,483,504,576.0,1
671,490,504,578.0,1
672,507,509,578.0,1
673,523,513,576.0,1
674,519,515,576.0,1
675,500,514,576.0,1
676,495,511,578.0,1
677,508,513,579.0,1
678,517,513,577.0,1
679,519,512,576.0,1
680,496,507,576.0,1
681,484,503,577.0,1
682,492,502,579.0,1
683,509,507,578.0,1
684,521,510,577.0,1
685,505,507,576.0,1
686,495,511,576.0,1
687,509,518,579.0,1
688,527,522,579.0,1
689,535,518,577.0,1
690,527,515,577.0,1
691,514,516,576.0,1
692,515,517,578.0,1
693,534,524,579.0,1
694,551,528,578.0,1
695,555,523,577.0,1
696,531,513,577.0,1
697,523,512,578.0,1
698,533,513,580.0,1
699,533,506,579.0,1
700,539,507,577.0,1
701,523,506,577.0,1
702,522,519,577.0,1
703,527,523,579.0,1
704,528,520,579.0,1
705,522,512,578.0,1
706,512,511,577.0,1
707,487,506,577.0,1
708,481,505,579.0,1
709,489,506,580.0,1
710,496,508,578.0,1
711,501,508,578.0,1
712,480,504,577.0,1
713,473,505,578.0,1
714,479,503,580.0,1
715,493,508,579.0,1
716,502,507,578.0,1
717,494,508,578.0,1
718,477,506,578.0,1
719,477,504,580.0,1
720,484,504,580.0,1
721,494,502,578.0,1
722,503,505,578.0,1
723,503,504,578.0,1
724,527,505,579.0,1
725,576,504,581.0,1
726,637,508,579.0,1
727,684,511,578.0,1
728,706,513,578.0,1
729,714,512,579.0,1
730,680,507,581.0,1
731,619,506,580.0,1
732,557,505,579.0,1
733,496,507,578.0,1
734,452,504,578.0,1
735,450,505,580.0,1
736,456,504,581.0,1
737,462,505,579.0,1
738,460,508,578.0,1
739,443,508,578.0,1
740,441,509,580.0,1
741,448,507,581.0,1
742,455,506,580.0,1
743,460,505,578.0,1
744,449,505,578.0,1
745,442,504,579.0,1
746,453,506,581.0,1
747,462,505,580.0,1
748,473,505,579.0,1
749,467,506,578.0,1
750,458,508,578.0,1
751,466,510,581.0,1
752,477,508,581.0,1
753,484,508,579.0,1
754,483,506,579.0,1
755,472,507,578.0,1
756,472,507,580.0,1
757,483,508,582.0,1
758,492,509,580.0,1
759,505,515,579.0,1
760,499,519,578.0,1
761,489,515,579.0,1
762,493,511,581.0,1
763,495,506,581.0,1
764,503,506,579.0,1
765,496,505,579.0,1
766,486,506,579.0,1
767,488,504,581.0,1
768,500,504,581.0,1
769,508,506,580.0,1
770,511,508,579.0,1
771,499,509,579.0,1
772,495,506,580.0,1
773,508,507,582.0,1
774,512,505,580.0,1
775,521,508,579.0,1
776,507,507,579.0,1
777,501,506,580.0,1
778,508,505,582.0,1
779,518,505,581.0,1
780,524,506,580.0,1
781,518,507,579.0,1
782,507,507,579.0,1
783,509,505,581.0,1
784,522,506,582.0,1
785,526,505,580.0,1
786,527,508,579.0,1
787,514,508,579.0,1
788,518,513,581.0,1
789,533,517,583.0,1
790,537,514,581.0,1
791,539,514,580.0,1
792,520,509,580.0,1
793,509,507,580.0,1
794,515,505,582.0,1
795,525,507,582.0,1
796,526,507,580.0,1
797,515,507,580.0,1
798,500,507,580.0,1
799,501,507,582.0,1
800,508,507,583.0,1
801,509,507,581.0,1
802,505,508,580.0,1
803,489,507,580.0,1
804,484,507,581.0,1
805,491,506,583.0,1
806,495,506,582.0,1
807,497,506,581.0,1
808,491,512,580.0,1
809,481,511,581.0,1
810,483,507,583.0,1
811,489,505,583.0,1
812,493,505,581.0,1
813,490,508,580.0,1
814,478,506,580.0,1
815,481,506,582.0,1
816,490,505,583.0,1
817,494,505,581.0,1
818,496,506,581.0,1
819,485,507,580.0,1
820,485,509,582.0,1
821,496,511,584.0,1
822,506,515,582.0,1
823,507,511,581.0,1
824,494,509,581.0,1
825,484,507,581.0,1
826,492,507,583.0,1
827,499,506,583.0,1
828,504,507,581.0,1
829,498,507,581.0,1
830,489,508,580.0,1
831,493,510,583.0,1
832,500,507,584.0,1
833,506,509,582.0,1
834,505,509,581.0,1
835,493,508,581.0,1
836,487,506,582.0,1
837,499,507,584.0,1
838,510,512,583.0,1
839,511,510,581.0,1
840,501,509,581.0,1
841,492,508,581.0,1
842,503,512,583.0,1
843,507,509,583.0,1
844,511,510,582.0,1
845,504,509,581.0,1
846,494,509,581.0,1
847,495,509,583.0,1
848,504,508,584.0,1
849,509,509,582.0,1
850,508,509,581.0,1
851,496,508,581.0,1
852,493,509,582.0,1
853,505,512,584.0,1
854,509,510,583.0,1
855,511,509,582.0,1
856,501,508,581.0,1
857,495,508,582.0,1
858,502,507,584.0,1
859,512,507,584.0,1
860,517,507,582.0,1
861,515,508,581.0,1
862,507,508,581.0,1
863,508,506,583.0,1
864,521,508,584.0,1
865,528,507,583.0,1
866,536,510,582.0,1
867,527,509,581.0,1
868,522,508,582.0,1
869,530,508,585.0,1
870,531,506,583.0,1
871,533,509,582.0,1
872,520,508,582.0,1
873,509,508,582.0,1
874,507,506,584.0,1
875,512,508,584.0,1
876,507,507,583.0,1
877,500,508,582.0,1
878,487,509,582.0,1
879,485,509,584.0,1
880,495,512,585.0,1
881,492,508,583.0,1
882,493,508,582.0,1
883,482,508,582.0,1
884,483,511,583.0,1
885,489,509,585.0,1
886,497,512,584.0,1
887,496,509,583.0,1
888,488,509,582.0,1
889,479,509,582.0,1
890,480,507,585.0,1
891,489,508,585.0,1
892,502,510,583.0,1
893,518,514,583.0,1
894,530,513,582.0,1
895,560,509,584.0,1
896,617,508,586.0,1
897,674,507,584.0,1
898,710,508,583.0,1
899,722,509,583.0,1
900,697,510,584.0,1
901,639,508,586.0,1
902,581,512,585.0,1
903,528,514,584.0,1
904,481,514,583.0,1
905,458,512,583.0,1
906,455,508,585.0,1
907,460,509,586.0,1
908,456,507,584.0,1
909,453,510,583.0,1
910,441,508,583.0,1
911,444,511,585.0,1
912,454,512,586.0,1
913,458,512,585.0,1
914,463,514,584.0,1
915,453,512,583.0,1
916,446,508,584.0,1
917,454,507,586.0,1
918,461,507,586.0,1
919,465,506,584.0,1
920,461,506,584.0,1
921,454,505,584.0,1
922,460,505,586.0,1
923,470,506,586.0,1
924,477,508,585.0,1
925,479,510,584.0,1
926,472,509,583.0,1
927,474,509,585.0,1
928,484,510,587.0,1
929,488,509,585.0,1
930,489,507,584.0,1
931,481,506,584.0,1
932,478,505,585.0,1
933,487,505,587.0,1
934,493,504,586.0,1
935,496,505,585.0,1
936,494,507,584.0,1
937,488,508,584.0,1
938,494,507,586.0,1
939,504,508,587.0,1
940,505,506,585.0,1
941,505,507,584.0,1
942,496,506,584.0,1
943,497,505,586.0,1
944,507,505,587.0,1
945,514,508,586.0,1
946,516,509,585.0,1
947,508,509,584.0,1
948,505,509,585.0,1
949,517,511,587.0,1
950,526,512,587.0,1
951,524,509,585.0,1
952,516,508,585.0,1
953,508,506,585.0,1
954,513,505,587.0,1
955,522,505,587.0,1
956,524,505,586.0,1
957,523,507,585.0,1
958,515,509,585.0,1
959,518,511,586.0,1
960,528,511,588.0,1
961,532,510,586.0,1
962,533,512,585.0,1
963,519,508,585.0,1
964,512,506,585.0,1
965,517,505,588.0,1
966,523,506,587.0,1
967,521,506,586.0,1
968,511,506,585.0,1
969,500,506,585.0,1
970,501,505,587.0,1
971,508,507,588.0,1
972,507,507,586.0,1
973,502,508,585.0,1
974,495,512,585.0,1
975,497,517,587.0,1
976,506,518,588.0,1
977,508,518,587.0,1
978,506,517,586.0,1
979,494,515,585.0,1
980,487,514,586.0,1
981,494,513,588.0,1
982,503,515,588.0,1
983,500,512,586.0,1
984,490,508,585.0,1
985,480,506,585.0,1
986,487,508,587.0,1
987,501,512,588.0,1
988,499,508,586.0,1
989,496,507,586.0,1
990,487,507,585.0,1
991,492,512,587.0,1
992,502,513,588.0,1
993,505,511,587.0,1
994,501,508,586.0,1
995,492,506,585.0,1
996,486,506,586.0,1
997,492,505,588.0,1
998,502,508,588.0,1
999,511,514,586.0,1
1000,508,516,586.0,1
1001,498,513,585.0,1
1002,504,515,588.0,1
1003,514,515,589.0,1
1004,515,515,587.0,1
1005,510,513,586.0,1
1006,496,509,586.0,1
1007,491,506,587.0,1
1008,498,506,589.0,1
1009,505,508,588.0,1
1010,511,513,586.0,1
1011,507,516,586.0,1
1012,500,514,586.0,1
1013,504,510,588.0,1
1014,511,512,588.0,1
1015,515,514,587.0,1
1016,512,516,586.0,1
1017,502,514,586.0,1
1018,505,515,588.0,1
1019,516,517,589.0,1
1020,515,516,587.0,1
1021,511,513,586.0,1
1022,502,512,586.0,1
1023,496,510,587.0,1
1024,501,507,589.0,1
1025,504,507,588.0,1
1026,506,508,587.0,1
1027,498,507,586.0,1
1028,492,506,586.0,1
1029,506,512,589.0,1
1030,513,511,589.0,1
1031,513,509,587.0,1
1032,511,509,586.0,1
1033,502,507,586.0,1
1034,506,506,588.0,1
1035,517,507,589.0,1
1036,517,506,588.0,1
1037,517,506,587.0,1
1038,513,506,586.0,1
1039,517,506,587.0,1
1040,530,505,589.0,1
1041,536,507,588.0,1
1042,536,508,587.0,1
1043,527,508,586.0,1
1044,519,508,587.0,1
1045,520,506,589.0,1
1046,524,506,589.0,1
1047,519,506,587.0,1
1048,509,507,587.0,1
1049,495,506,586.0,1
1050,492,506,588.0,1
1051,497,506,590.0,1
1052,495,506,588.0,1
1053,494,508,587.0,1
1054,486,510,587.0,1
1055,483,510,588.0,1
1056,488,508,590.0,1
1057,490,507,589.0,1
1058,491,507,587.0,1
1059,486,508,587.0,1
1060,480,509,587.0,1
1061,484,507,589.0,1
1062,490,507,590.0,1
1063,489,507,588.0,1
1064,488,510,587.0,1
1065,487,512,587.0,1
1066,505,516,589.0,1
1067,536,517,590.0,1
1068,564,515,588.0,1
1069,600,513,587.0,1
1070,639,508,587.0,1
1071,688,506,588.0,1
1072,735,508,590.0,1
1073,741,508,589.0,1
1074,680,508,588.0,1
1075,596,510,587.0,1
1076,527,510,587.0,1
1077,485,509,590.0,1
1078,471,509,590.0,1
1079,465,508,588.0,1
1080,458,508,588.0,1
1081,446,507,587.0,1
1082,443,505,589.0,1
1083,450,506,590.0,1
1084,451,506,589.0,1
1085,452,508,588.0,1
1086,447,510,587.0,1
1087,449,513,588.0,1
1088,466,519,590.0,1
1089,475,521,590.0,1
1090,474,517,588.0,1
1091,462,511,588.0,1
1092,454,508,588.0,1
1093,460,506,590.0,1
1094,469,506,590.0,1
1095,484,516,589.0,1
1096,484,517,588.0,1
1097,471,510,588.0,1
1098,470,508,589.0,1
1099,479,506,591.0,1
1100,481,505,589.0,1
1101,483,506,588.0,1
1102,477,506,588.0,1
1103,478,508,589.0,1
1104,492,510,591.0,1
1105,503,514,590.0,1
1106,500,511,589.0,1
1107,495,510,588.0,1
1108,495,513,588.0,1
1109,505,516,590.0,1
1110,512,514,591.0,1
1111,507,508,589.0,1
1112,503,507,588.0,1
1113,495,505,588.0,1
1114,499,507,590.0,1
1115,512,509,591.0,1
1116,521,513,590.0,1
1117,523,515,589.0,1
1118,517,516,588.0,1
1119,513,514,589.0,1
1120,522,513,591.0,1
1121,530,515,591.0,1
1122,533,516,589.0,1
1123,522,513,588.0,1
1124,509,508,588.0,1
1125,513,505,591.0,1
1126,525,507,591.0,1
1127,530,511,589.0,1
1128,524,509,589.0,1
1129,513,506,588.0,1
1130,514,505,590.0,1
1131,524,506,592.0,1
1132,529,508,590.0,1
1133,531,510,589.0,1
1134,521,510,589.0,1
1135,515,508,589.0,1
1136,527,512,591.0,1
1137,530,509,591.0,1
1138,528,509,589.0,1
1139,525,513,589.0,1
1140,516,513,589.0,1
1141,518,512,591.0,1
1142,525,513,592.0,1
1143,524,514,590.0,1
1144,519,515,589.0,1
1145,506,514,589.0,1
1146,500,511,590.0,1
1147,501,506,592.0,1
1148,499,505,591.0,1
1149,500,508,589.0,1
1150,496,513,589.0,1
1151,491,513,590.0,1
1152,498,513,592.0,1
1153,501,511,591.0,1
1154,502,513,590.0,1
1155,499,516,589.0,1
1156,493,517,589.0,1
1157,495,515,591.0,1
1158,496,509,592.0,1
1159,493,506,590.0,1
1160,490,506,590.0,1
1161,489,511,589.0,1
1162,489,510,591.0,1
1163,502,513,592.0,1
1164,508,515,591.0,1
1165,509,516,590.0,1
1166,498,513,589.0,1
1167,491,510,590.0,1
1168,499,511,592.0,1
1169,506,511,592.0,1
1170,503,508,590.0,1
1171,496,507,590.0,1
1172,489,506,589.0,1
1173,495,508,592.0,1
1174,511,513,592.0,1
1175,515,515,591.0,1
1176,514,516,590.0,1
1177,504,515,589.0,1
1178,504,515,591.0,1
1179,510,512,593.0,1
1180,512,512,591.0,1
1181,507,509,590.0,1
1182,497,507,590.0,1
1183,491,506,590.0,1
1184,497,505,592.0,1
1185,502,505,592.0,1
1186,506,509,591.0,1
1187,506,513,590.0,1
1188,504,516,590.0,1
1189,508,516,592.0,1
1190,517,516,593.0,1
1191,513,513,591.0,1
1192,514,515,590.0,1
1193,501,511,590.0,1
1194,494,506,591.0,1
1195,502,507,593.0,1
1196,507,508,592.0,1
1197,507,509,590.0,1
1198,504,511,590.0,1
1199,498,510,590.0,1
1200,504,510,592.0,1
1201,512,511,592.0,1
1202,510,510,591.0,1
1203,509,512,590.0,1
1204,501,511,590.0,1
1205,502,508,592.0,1
1206,511,506,593.0,1
1207,512,506,591.0,1
1208,514,507,591.0,1
1209,513,511,590.0,1
1210,516,514,591.0,1
1211,527,514,593.0,1
1212,532,513,592.0,1
1213,534,511,591.0,1
1214,536,515,590.0,1
1215,536,516,591.0,1
1216,536,511,593.0,1
1217,535,506,593.0,1
1218,530,505,591.0,1
1219,528,509,591.0,1
1220,526,514,590.0,1
1221,526,515,592.0,1
1222,529,516,594.0,1
1223,524,517,592.0,1
1224,516,517,591.0,1
1225,502,515,591.0,1
1226,498,515,592.0,1
1227,504,515,594.0,1
1228,499,510,593.0,1
1229,494,507,591.0,1
1230,487,508,591.0,1
1231,488,513,591.0,1
1232,497,515,593.0,1
1233,501,513,594.0,1
1234,500,513,592.0,1
1235,500,516,591.0,1
1236,494,516,591.0,1
1237,494,516,593.0,1
1238,493,511,594.0,1
1239,489,506,592.0,1
1240,494,505,591.0,1
1241,501,505,591.0,1
1242,522,505,592.0,1
1243,567,507,594.0,1
1244,625,512,593.0,1
1245,677,514,592.0,1
1246,713,513,591.0,1
1247,735,514,591.0,1
1248,720,514,594.0,1
1249,659,514,594.0,1
1250,586,512,592.0,1
1251,519,508,592.0,1
1252,469,506,591.0,1
1253,456,504,593.0,1
1254,467,510,595.0,1
1255,469,514,593.0,1
1256,466,516,592.0,1
1257,456,516,592.0,1
1258,451,515,592.0,1
1259,457,512,595.0,1
1260,463,514,594.0,1
1261,464,515,592.0,1
1262,457,512,592.0,1
1263,449,508,592.0,1
1264,453,505,594.0,1
1265,459,504,595.0,1
1266,464,507,593.0,1
1267,467,510,592.0,1
1268,459,507,592.0,1
1269,461,505,594.0,1
1270,470,504,595.0,1
1271,474,505,594.0,1
1272,479,509,592.0,1
1273,479,513,592.0,1
1274,474,509,593.0,1
1275,480,506,595.0,1
1276,485,505,594.0,1
1277,485,505,593.0,1
1278,485,508,592.0,1
1279,488,512,592.0,1
1280,496,512,594.0,1
1281,507,514,595.0,1
1282,510,515,593.0,1
1283,510,516,592.0,1
1284,502,513,592.0,1
1285,504,513,594.0,1
1286,511,511,595.0,1
1287,507,506,594.0,1
1288,506,505,593.0,1
1289,509,512,592.0,1
1290,513,516,593.0,1
1291,522,516,595.0,1
1292,527,515,595.0,1
1293,523,512,593.0,1
1294,518,513,593.0,1
1295,512,511,593.0,1
1296,517,510,595.0,1
1297,523,509,596.0,1
1298,521,507,594.0,1
1299,517,506,593.0,1
1300,510,505,593.0,1
1301,515,507,594.0,1
1302,527,508,596.0,1
1303,535,514,594.0,1
1304,535,515,593.0,1
1305,528,515,593.0,1
1306,520,510,593.0,1
1307,529,509,596.0,1
1308,538,512,595.0,1
1309,532,510,593.0,1
1310,521,506,593.0,1
1311,513,505,593.0,1
1312,517,505,595.0,1
1313,528,508,596.0,1
1314,531,512,594.0,1
1315,530,516,593.0,1
1316,521,517,593.0,1
1317,520,517,595.0,1
1318,524,516,596.0,1
1319,521,513,595.0,1
1320,517,515,594.0,1
1321,503,512,593.0,1
1322,491,506,594.0,1
1323,494,504,596.0,1
1324,505,511,596.0,1
1325,507,516,594.0,1
1326,500,516,593.0,1
1327,489,512,593.0,1
1328,495,514,596.0,1
1329,503,514,596.0,1
1330,502,514,595.0,1
1331,495,512,594.0,1
1332,489,512,593.0,1
1333,488,510,595.0,1
1334,492,505,597.0,1
1335,493,503,595.0,1
1336,496,507,594.0,1
1337,496,511,594.0,1
1338,497,514,594.0,1
1339,505,514,596.0,1
1340,508,512,596.0,1
1341,510,516,594.0,1
1342,505,516,594.0,1
1343,499,515,594.0,1
1344,498,510,596.0,1
1345,500,505,597.0,1
1346,497,504,595.0,1
1347,495,504,594.0,1
1348,496,509,594.0,1
1349,504,515,595.0,1
1350,516,517,597.0,1
1351,519,517,596.0,1
1352,516,517,595.0,1
1353,510,517,594.0,1
1354,507,517,595.0,1
1355,513,516,597.0,1
1356,510,509,597.0,1
1357,502,504,595.0,1
1358,497,504,594.0,1
1359,494,507,594.0,1
1360,501,510,596.0,1
1361,510,509,597.0,1
1362,512,512,595.0,1
1363,511,514,595.0,1
1364,506,514,594.0,1
1365,501,510,596.0,1
1366,508,509,598.0,1
1367,508,508,596.0,1
1368,504,508,595.0,1
1369,497,507,595.0,1
1370,493,506,595.0,1
1371,503,508,597.0,1
1372,516,514,597.0,1
1373,515,515,595.0,1
1374,506,511,595.0,1
1375,505,514,594.0,1
1376,511,516,596.0,1
1377,517,515,598.0,1
1378,514,513,596.0,1
1379,506,509,595.0,1
1380,496,506,594.0,1
1381,496,505,596.0,1
1382,508,505,598.0,1
1383,521,511,596.0,1
1384,527,516,595.0,1
1385,525,517,594.0,1
1386,518,513,595.0,1
1387,526,513,597.0,1
1388,530,510,597.0,1
1389,535,513,595.0,1
1390,534,512,595.0,1
1391,526,507,594.0,1
1392,526,504,596.0,1
1393,531,504,598.0,1
1394,531,507,596.0,1
1395,533,514,595.0,1
1396,531,518,594.0,1
1397,529,518,595.0,1
1398,531,518,598.0,1
1399,522,512,596.0,1
1400,515,514,595.0,1
1401,507,515,595.0,1
1402,499,514,595.0,1
1403,496,509,597.0,1
1404,493,504,597.0,1
1405,487,502,595.0,1
1406,488,506,595.0,1
1407,489,512,594.0,1
1408,491,511,596.0,1
1409,502,513,598.0,1
1410,504,515,596.0,1
1411,502,516,595.0,1
1412,489,510,594.0,1
1413,483,506,595.0,1
1414,485,504,598.0,1
1415,486,503,597.0,1
1416,489,504,595.0,1
1417,499,504,595.0,1
1418,521,507,595.0,1
1419,561,510,597.0,1
1420,613,508,598.0,1
1421,665,509,596.0,1
1422,710,513,595.0,1
1423,738,517,595.0,1
1424,729,517,597.0,1
1425,673,516,598.0,1
1426,595,509,596.0,1
1427,526,505,595.0,1
1428,475,504,595.0,1
1429,460,506,596.0,1
1430,471,513,598.0,1
1431,473,516,597.0,1
1432,468,516,596.0,1
1433,455,512,595.0,1
1434,445,509,595.0,1
1435,455,513,597.0,1
1436,461,513,598.0,1
1437,457,511,596.0,1
1438,449,507,595.0,1
1439,443,505,595.0,1
1440,446,504,597.0,1
1441,462,509,598.0,1
1442,464,508,597.0,1
1443,471,514,595.0,1
1444,472,517,595.0,1
1445,475,517,596.0,1
1446,482,515,598.0,1
1447,488,517,597.0,1
1448,485,515,596.0,1
1449,474,509,596.0,1
1450,470,506,595.0,1
1451,476,504,598.0,1
1452,483,504,598.0,1
1453,486,507,596.0,1
1454,488,509,596.0,1
1455,485,510,595.0,1
1456,496,515,597.0,1
1457,508,517,599.0,1
1458,508,516,597.0,1
1459,504,514,596.0,1
1460,503,516,595.0,1
1461,498,512,596.0,1
1462,500,506,598.0,1
1463,502,504,598.0,1
1464,509,512,596.0,1
1465,512,516,596.0,1
1466,512,517,596.0,1
1467,519,516,598.0,1
1468,527,517,599.0,1
1469,526,516,596.0,1
1470,524,517,596.0,1
1471,516,514,596.0,1
1472,517,512,597.0,1
1473,522,509,599.0,1
1474,517,504,597.0,1
1475,513,503,596.0,1
1476,519,511,596.0,1
1477,525,516,596.0,1
1478,535,517,599.0,1
1479,536,514,598.0,1
1480,527,509,597.0,1
1481,527,514,596.0,1
1482,522,512,596.0,1
1483,529,513,598.0,1
1484,531,509,599.0,1
1485,522,503,597.0,1
1486,516,503,596.0,1
1487,510,503,596.0,1
1488,517,507,597.0,1
1489,534,514,599.0,1
1490,536,516,598.0,1
1491,530,517,596.0,1
1492,520,517,596.0,1
1493,514,515,596.0,1
1494,521,516,599.0,1
1495,523,516,599.0,1
1496,510,512,597.0,1
1497,496,507,596.0,1
1498,487,504,596.0,1
1499,499,512,598.0,1
1500,510,516,599.0,1
1501,503,514,597.0,1
1502,496,513,596.0,1
1503,492,514,596.0,1
1504,495,515,598.0,1
1505,503,514,599.0,1
1506,502,513,598.0,1
1507,500,515,596.0,1
1508,491,512,596.0,1
1509,482,506,597.0,1
1510,486,503,599.0,1
1511,495,507,599.0,1
1512,500,513,597.0,1
1513,500,515,597.0,1
1514,496,514,596.0,1
1515,504,516,599.0,1
1516,510,515,600.0,1
1517,506,513,598.0,1
1518,501,511,597.0,1
1519,490,506,596.0,1
1520,488,503,598.0,1
1521,496,503,600.0,1
1522,496,503,598.0,1
1523,498,507,597.0,1
1524,501,513,597.0,1
1525,502,514,597.0,1
1526,511,515,599.0,1
1527,512,512,599.0,1
1528,511,514,598.0,1
1529,507,515,597.0,1
1530,505,515,597.0,1
1531,505,511,599.0,1
1532,504,505,600.0,1
1533,499,503,598.0,1
1534,501,507,597.0,1
1535,504,513,597.0,1
1536,510,517,598.0,1
1537,520,517,600.0,1
1538,519,516,599.0,1
1539,513,514,598.0,1
1540,506,512,597.0,1
1541,505,513,597.0,1
1542,513,515,600.0,1
1543,513,511,600.0,1
1544,501,504,598.0,1
1545,496,504,597.0,1
1546,501,511,597.0,1
1547,511,516,599.0,1
1548,515,513,600.0,1
1549,514,513,598.0,1
1550,512,515,598.0,1
1551,508,515,597.0,1
1552,503,511,599.0,1
1553,504,505,600.0,1
1554,502,503,599.0,1
1555,498,503,598.0,1
1556,496,504,598.0,1
1557,495,503,598.0,1
1558,506,505,600.0,1
1559,520,511,600.0,1
1560,522,513,598.0,1
1561,516,511,598.0,1
1562,517,514,597.0,1
1563,523,515,600.0,1
1564,532,514,601.0,1
1565,531,511,599.0,1
1566,528,506,598.0,1
1567,523,504,598.0,1
1568,523,503,599.0,1
1569,532,504,601.0,1
1570,538,510,600.0,1
1571,536,514,598.0,1
1572,531,516,598.0,1
1573,524,515,598.0,1
1574,523,513,600.0,1
1575,524,514,601.0,1
1576,514,512,599.0,1
1577,504,512,598.0,1
1578,492,508,598.0,1
1579,490,507,600.0,1
1580,494,506,601.0,1
1581,491,506,599.0,1
1582,490,508,598.0,1
1583,492,513,598.0,1
1584,495,515,599.0,1
1585,505,516,601.0,1
1586,501,512,600.0,1
1587,498,513,599.0,1
1588,495,514,598.0,1
1589,486,509,599.0,1
1590,483,504,601.0,1
1591,486,503,601.0,1
1592,486,502,599.0,1
1593,501,507,598.0,1
1594,527,515,598.0,1
1595,564,517,600.0,1
1596,617,517,602.0,1
1597,670,517,600.0,1
1598,712,516,599.0,1
1599,730,508,599.0,1
1600,720,507,600.0,1
1601,666,506,602.0,1
1602,594,504,601.0,1
1603,529,504,599.0,1
1604,482,507,599.0,1
1605,467,512,599.0,1
1606,470,512,601.0,1
1607,470,512,602.0,1
1608,461,511,600.0,1
1609,456,513,599.0,1
1610,451,513,599.0,1
1611,450,511,601.0,1
1612,458,510,602.0,1
1613,452,507,601.0,1
1614,445,503,599.0,1
1615,443,503,599.0,1
1616,448,506,600.0,1
1617,461,510,602.0,1
1618,470,512,601.0,1
1619,471,514,600.0,1
1620,468,512,599.0,1
1621,470,515,599.0,1
1622,480,516,602.0,1
1623,487,514,602.0,1
1624,478,509,600.0,1
1625,470,505,599.0,1
1626,467,503,599.0,1
1627,471,503,601.0,1
1628,485,507,602.0,1
1629,494,513,601.0,1
1630,495,516,600.0,1
1631,494,516,599.0,1
1632,494,515,600.0,1
1633,500,512,602.0,1
1634,502,511,602.0,1
1635,502,513,600.0,1
1636,496,510,599.0,1
1637,489,505,600.0,1
1638,494,503,602.0,1
1639,507,507,603.0,1
1640,510,512,601.0,1
1641,505,510,600.0,1
1642,508,514,599.0,1
1643,515,516,601.0,1
1644,525,516,603.0,1
1645,523,514,601.0,1
1646,519,514,600.0,1
1647,519,515,600.0,1
1648,515,511,600.0,1
1649,516,505,603.0,1
1650,517,502,602.0,1
1651,518,505,600.0,1
1652,522,511,600.0,1
1653,524,514,600.0,1
1654,527,512,602.0,1
1655,539,516,603.0,1
1656,538,517,601.0,1
1657,534,518,600.0,1
1658,524,512,600.0,1
1659,520,507,601.0,1
1660,524,504,603.0,1
1661,522,503,602.0,1
1662,517,503,601.0,1
1663,523,511,600.0,1
1664,528,516,601.0,1
1665,537,516,603.0,1
1666,535,514,603.0,1
1667,524,511,601.0,1
1668,521,515,600.0,1
1669,518,517,600.0,1
1670,521,517,603.0,1
1671,518,511,603.0,1
1672,504,504,602.0,1
1673,495,504,601.0,1
1674,493,507,600.0,1
1675,495,509,602.0,1
1676,505,510,604.0,1
1677,504,512,602.0,1
1678,501,514,601.0,1
1679,494,513,601.0,1
1680,493,513,601.0,1
1681,502,515,604.0,1
1682,506,516,603.0,1
1683,495,511,601.0,1
1684,485,505,601.0,1
1685,480,503,601.0,1
1686,494,509,603.0,1
1687,507,515,604.0,1
1688,503,514,602.0,1
1689,500,515,601.0,1
1690,501,518,601.0,1
1691,503,517,602.0,1
1692,505,511,604.0,1
1693,498,505,603.0,1
1694,491,503,602.0,1
1695,486,503,601.0,1
1696,486,503,602.0,1
1697,494,503,604.0,1
1698,508,510,604.0,1
1699,510,515,602.0,1
1700,508,516,601.0,1
1701,499,511,601.0,1
1702,501,509,604.0,1
1703,511,511,604.0,1
1704,507,511,603.0,1
1705,500,509,602.0,1
1706,493,505,601.0,1
1707,492,503,603.0,1
1708,499,503,605.0,1
1709,503,505,604.0,1
1710,504,509,602.0,1
1711,506,513,602.0,1
1712,507,514,602.0,1
1713,514,514,604.0,1
1714,509,508,604.0,1
1715,507,511,603.0,1
1716,503,511,602.0,1
1717,506,514,602.0,1
1718,505,510,604.0,1
1719,504,504,605.0,1
1720,498,501,603.0,1
1721,498,505,602.0,1
1722,503,512,602.0,1
1723,509,517,603.0,1
1724,519,517,605.0,1
1725,519,517,604.0,1
1726,513,515,602.0,1
1727,507,513,602.0,1
1728,506,513,602.0,1
1729,509,509,605.0,1
1730,506,504,605.0,1
1731,498,502,603.0,1
1732,494,502,602.0,1
1733,501,510,602.0,1
1734,512,514,604.0,1
1735,519,512,605.0,1
1736,520,513,604.0,1
1737,519,514,603.0,1
1738,514,511,602.0,1
1739,514,509,604.0,1
1740,518,505,606.0,1
1741,518,503,605.0,1
1742,516,503,603.0,1
1743,519,504,603.0,1
1744,522,503,603.0,1
1745,530,503,605.0,1
1746,534,502,605.0,1
1747,527,502,604.0,1
1748,521,505,603.0,1
1749,515,504,603.0,1
1750,516,503,605.0,1
1751,519,503,606.0,1
1752,511,504,604.0,1
1753,500,504,603.0,1
1754,493,505,603.0,1
1755,490,504,604.0,1
1756,501,509,606.0,1
1757,508,516,605.0,1
1758,504,518,604.0,1
1759,500,519,603.0,1
1760,496,517,603.0,1
1761,500,515,606.0,1
1762,505,516,606.0,1
1763,499,515,604.0,1
1764,490,510,603.0,1
1765,482,506,603.0,1
1766,484,505,605.0,1
1767,488,504,606.0,1
1768,488,508,605.0,1
1769,488,510,604.0,1
1770,494,510,603.0,1
1771,516,512,604.0,1
1772,552,515,607.0,1
1773,589,512,606.0,1
1774,636,513,604.0,1
1775,689,516,604.0,1
1776,725,511,604.0,1
1777,740,506,606.0,1
1778,700,504,607.0,1
1779,627,508,605.0,1
1780,563,515,604.0,1
1781,509,516,604.0,1
1782,478,512,605.0,1
1783,479,515,607.0,1
1784,474,516,605.0,1
1785,465,517,604.0,1
1786,454,513,604.0,1
1787,453,514,605.0,1
1788,454,510,607.0,1
1789,449,504,606.0,1
1790,442,502,605.0,1
1791,449,510,604.0,1
1792,456,515,604.0,1
1793,466,516,607.0,1
1794,474,515,607.0,1
1795,471,516,605.0,1
1796,470,517,604.0,1
1797,470,517,604.0,1
1798,475,517,606.0,1
1799,477,510,607.0,1
1800,472,506,606.0,1
1801,466,503,605.0,1
1802,464,503,604.0,1
1803,472,507,605.0,1
1804,489,513,607.0,1
1805,496,515,607.0,1
1806,489,512,605.0,1
1807,485,511,604.0,1
1808,488,513,604.0,1
1809,498,514,607.0,1
1810,505,515,607.0,1
1811,496,510,605.0,1
1812,488,505,605.0,1
1813,485,503,604.0,1
1814,499,511,606.0,1
1815,513,514,608.0,1
1816,514,514,606.0,1
1817,513,516,605.0,1
1818,512,517,605.0,1
1819,513,516,605.0,1
1820,518,512,608.0,1
1821,523,514,607.0,1
1822,512,508,605.0,1
1823,504,504,605.0,1
1824,503,503,605.0,1
1825,509,501,607.0,1
1826,525,509,608.0,1
1827,528,515,606.0,1
1828,526,516,605.0,1
1829,523,514,605.0,1
1830,527,515,606.0,1
1831,535,514,608.0,1
1832,535,514,607.0,1
1833,529,513,605.0,1
1834,522,509,605.0,1
1835,516,504,606.0,1
1836,522,503,608.0,1
1837,524,503,608.0,1
1838,518,503,606.0,1
1839,515,504,605.0,1
1840,516,506,605.0,1
1841,527,511,607.0,1
1842,539,515,608.0,1
1843,534,516,606.0,1
1844,528,517,606.0,1
1845,520,514,605.0,1
1846,511,506,607.0,1
1847,512,503,609.0,1
1848,506,502,607.0,1
1849,504,507,606.0,1
1850,498,508,606.0,1
1851,501,512,606.0,1
1852,510,515,608.0,1
1853,511,515,608.0,1
1854,499,512,606.0,1
1855,496,513,606.0,1
1856,494,514,606.0,1
1857,493,510,608.0,1
1858,492,504,609.0,1
1859,485,502,607.0,1
1860,481,502,606.0,1
1861,483,507,606.0,1
1862,491,511,607.0,1
1863,498,509,609.0,1
1864,496,509,608.0,1
1865,492,509,606.0,1
1866,496,514,606.0,1
1867,491,509,607.0,1
1868,503,512,609.0,1
1869,503,510,609.0,1
1870,492,505,607.0,1
1871,488,504,606.0,1
1872,487,504,606.0,1
1873,497,508,608.0,1
1874,514,515,609.0,1
1875,512,516,608.0,1
1876,509,517,607.0,1
1877,507,518,606.0,1
1878,509,517,608.0,1
1879,516,516,610.0,1
1880,517,517,608.0,1
1881,503,509,607.0,1
1882,493,504,607.0,1
1883,491,503,607.0,1
1884,503,507,609.0,1
1885,515,513,609.0,1
1886,512,514,607.0,1
1887,509,516,607.0,1
1888,502,512,607.0,1
1889,508,513,609.0,1
1890,517,514,610.0,1
1891,514,515,608.0,1
1892,504,511,607.0,1
1893,495,506,607.0,1
1894,494,504,608.0,1
1895,502,504,610.0,1
1896,505,507,609.0,1
1897,502,509,607.0,1
1898,505,513,607.0,1
1899,508,515,607.0,1
1900,514,513,610.0,1
1901,513,511,609.0,1
1902,510,513,608.0,1
1903,509,516,607.0,1
1904,499,509,607.0,1
1905,498,504,609.0,1
1906,503,502,610.0,1
1907,499,502,608.0,1
1908,504,510,608.0,1
1909,508,515,607.0,1
1910,512,516,608.0,1
1911,521,517,610.0,1
1912,523,517,609.0,1
1913,517,515,608.0,1
1914,514,514,607.0,1
1915,518,515,608.0,1
1916,521,511,610.0,1
1917,518,505,610.0,1
1918,510,502,608.0,1
1919,517,510,608.0,1
1920,527,515,607.0,1
1921,536,514,609.0,1
1922,541,510,611.0,1
1923,542,512,609.0,1
1924,538,514,608.0,1
1925,530,512,608.0,1
1926,526,509,609.0,1
1927,527,505,611.0,1
1928,522,503,610.0,1
1929,510,502,608.0,1
1930,501,503,608.0,1
1931,504,511,608.0,1
1932,513,516,610.0,1
1933,515,516,611.0,1
1934,506,516,609.0,1
1935,500,517,608.0,1
1936,496,517,608.0,1
1937,501,517,610.0,1
1938,507,517,611.0,1
1939,494,509,609.0,1
1940,482,504,608.0,1
1941,478,503,608.0,1
1942,479,502,609.0,1
1943,496,510,611.0,1
1944,503,514,610.0,1
1945,497,516,609.0,1
1946,493,516,608.0,1
1947,491,513,608.0,1
1948,507,513,611.0,1
1949,530,515,611.0,1
1950,548,513,609.0,1
1951,579,508,608.0,1
1952,625,504,608.0,1
1953,683,503,610.0,1
1954,734,506,612.0,1
1955,749,512,610.0,1
1956,697,514,609.0,1
1957,620,514,609.0,1
1958,555,513,609.0,1
1959,511,513,612.0,1
1960,484,512,611.0,1
1961,471,513,609.0,1
1962,457,508,609.0,1
1963,446,504,609.0,1
1964,446,503,611.0,1
1965,448,503,612.0,1
1966,444,505,610.0,1
1967,447,511,609.0,1
1968,444,509,609.0,1
1969,449,509,610.0,1
1970,462,512,612.0,1
1971,462,512,610.0,1
1972,458,511,609.0,1
1973,456,510,609.0,1
1974,456,507,610.0,1
1975,461,504,612.0,1
1976,464,504,611.0,1
1977,461,503,610.0,1
1978,460,503,609.0,1
1979,461,504,609.0,1
1980,472,505,611.0,1
1981,483,508,612.0,1
1982,484,512,610.0,1
1983,484,513,609.0,1
1984,486,514,609.0,1
1985,490,513,611.0,1
1986,495,511,612.0,1
1987,488,506,611.0,1
1988,484,504,610.0,1
1989,486,507,609.0,1
1990,490,508,610.0,1
1991,506,513,612.0,1
1992,512,515,612.0,1
1993,508,515,610.0,1
1994,503,512,609.0,1
1995,507,514,609.0,1
1996,515,514,612.0,1
1997,515,509,612.0,1
1998,505,504,611.0,1
1999,501,503,610.0,1
2000,500,503,609.0,1
2001,510,506,611.0,1
2002,526,512,613.0,1
2003,530,516,611.0,1
2004,526,516,610.0,1
2005,524,516,610.0,1
2006,524,515,610.0,1
2007,533,515,613.0,1
2008,537,516,612.0,1
2009,522,508,611.0,1
2010,515,505,610.0,1
2011,514,504,610.0,1
2012,529,511,612.0,1
2013,541,515,613.0,1
2014,537,515,611.0,1
2015,529,512,610.0,1
2016,526,511,610.0,1
2017,530,512,612.0,1
2018,538,513,613.0,1
2019,532,510,612.0,1
2020,522,508,611.0,1
2021,515,505,610.0,1
2022,513,504,611.0,1
2023,517,503,613.0,1
2024,521,507,613.0,1
2025,518,512,611.0,1
2026,512,513,611.0,1
2027,510,514,610.0,1
2028,509,511,613.0,1
2029,515,514,614.0,1
2030,510,516,612.0,1
2031,503,517,611.0,1
2032,492,511,610.0,1
2033,486,505,612.0,1
2034,490,503,614.0,1
2035,487,502,613.0,1
2036,483,504,611.0,1
2037,480,504,611.0,1
2038,480,504,611.0,1
2039,487,503,614.0,1
2040,490,503,614.0,1
2041,485,504,612.0,1
2042,483,504,611.0,1
2043,483,504,611.0,1
2044,489,505,613.0,1
2045,497,506,614.0,1
2046,492,506,612.0,1
2047,488,505,611.0,1
2048,491,508,611.0,1
2049,499,512,613.0,1
2050,511,514,615.0,1
2051,512,515,613.0,1
2052,509,517,612.0,1
2053,502,514,611.0,1
2054,504,514,612.0,1
2055,514,516,614.0,1
2056,513,512,614.0,1
2057,499,506,612.0,1
2058,494,505,612.0,1
2059,498,508,611.0,1
2060,510,513,614.0,1
2061,519,516,615.0,1
2062,515,517,613.0,1
2063,512,517,612.0,1
2064,508,516,612.0,1
2065,512,517,613.0,1
2066,514,512,615.0,1
2067,508,509,614.0,1
2068,496,504,612.0,1
2069,492,503,612.0,1
2070,492,503,612.0,1
2071,508,510,615.0,1
2072,518,515,615.0,1
2073,514,516,613.0,1
2074,509,515,612.0,1
2075,506,514,612.0,1
2076,512,515,614.0,1
2077,519,516,615.0,1
2078,513,514,614.0,1
2079,500,507,613.0,1
2080,494,504,612.0,1
2081,496,505,614.0,1
2082,508,508,616.0,1
2083,510,509,614.0,1
2084,509,513,613.0,1
2085,509,516,613.0,1
2086,510,516,613.0,1
2087,511,511,615.0,1
2088,515,511,615.0,1
2089,511,513,614.0,1
2090,509,515,613.0,1
2091,504,512,613.0,1
2092,500,505,615.0,1
2093,504,503,616.0,1
2094,506,506,614.0,1
2095,510,512,613.0,1
2096,511,511,613.0,1
2097,519,514,614.0,1
2098,529,515,616.0,1
2099,529,513,615.0,1
2100,518,511,614.0,1
2101,520,513,613.0,1
2102,522,511,613.0,1
2103,529,505,616.0,1
2104,535,503,616.0,1
2105,528,502,614.0,1
2106,528,507,613.0,1
2107,533,513,613.0,1
2108,538,515,615.0,1
2109,545,517,617.0,1
2110,539,517,615.0,1
2111,529,516,614.0,1
2112,519,516,613.0,1
2113,514,516,614.0,1
2114,508,508,617.0,1
2115,499,504,616.0,1
2116,488,503,614.0,1
2117,485,506,614.0,1
2118,484,506,614.0,1
2119,489,505,616.0,1
2120,496,507,616.0,1
2121,494,510,615.0,1
2122,487,508,614.0,1
2123,492,513,614.0,1
2124,500,516,616.0,1
2125,505,514,617.0,1
2126,492,507,615.0,1
2127,480,503,614.0,1
2128,476,503,614.0,1
2129,488,509,615.0,1
2130,506,510,617.0,1
2131,528,513,616.0,1
2132,548,514,615.0,1
2133,585,515,614.0,1
2134,633,511,614.0,1
2135,697,513,617.0,1
2136,743,512,617.0,1
2137,743,507,615.0,1
2138,688,504,615.0,1
2139,613,503,614.0,1
2140,551,503,616.0,1
2141,509,506,618.0,1
2142,483,512,616.0,1
2143,472,514,615.0,1
2144,466,515,615.0,1
2145,463,515,615.0,1
2146,467,515,618.0,1
2147,458,510,617.0,1
2148,455,514,615.0,1
2149,445,510,615.0,1
2150,440,505,615.0,1
2151,446,504,617.0,1
2152,457,508,618.0,1
2153,461,513,616.0,1
2154,459,513,615.0,1
2155,459,512,615.0,1
2156,467,514,616.0,1
2157,478,515,618.0,1
2158,477,515,616.0,1
2159,471,512,615.0,1
2160,470,512,615.0,1
2161,470,509,616.0,1
2162,474,504,618.0,1
2163,476,503,617.0,1
2164,480,511,616.0,1
2165,486,516,615.0,1
2166,490,517,615.0,1
2167,495,515,617.0,1
2168,497,511,618.0,1
2169,496,513,616.0,1
2170,496,515,615.0,1
2171,496,514,615.0,1
2172,494,509,617.0,1
2173,496,505,618.0,1
2174,493,503,617.0,1
2175,490,503,616.0,1
2176,494,507,615.0,1
2177,499,509,616.0,1
2178,509,509,618.0,1
2179,515,511,618.0,1
2180,508,510,616.0,1
2181,509,512,616.0,1
2182,514,515,616.0,1
2183,521,515,618.0,1
2184,521,510,619.0,1
2185,510,505,617.0,1
2186,505,504,616.0,1
2187,511,508,616.0,1
2188,522,512,617.0,1
2189,531,513,619.0,1
2190,532,514,617.0,1
2191,529,516,616.0,1
2192,531,517,616.0,1
2193,530,514,616.0,1
2194,538,515,619.0,1
2195,542,516,618.0,1
2196,526,508,617.0,1
2197,517,504,616.0,1
2198,515,503,616.0,1
2199,525,507,618.0,1
2200,537,512,619.0,1
2201,534,514,617.0,1
2202,530,515,616.0,1
2203,530,517,616.0,1
2204,532,516,618.0,1
2205,536,516,619.0,1
2206,525,512,618.0,1
2207,510,507,617.0,1
2208,502,505,616.0,1
2209,497,503,617.0,1
2210,502,504,619.0,1
2211,505,506,619.0,1
2212,501,510,617.0,1
2213,500,515,617.0,1
2214,495,513,616.0,1
2215,498,513,619.0,1
2216,505,515,620.0,1
2217,501,516,618.0,1
2218,495,515,617.0,1
2219,486,509,617.0,1
2220,482,504,618.0,1
2221,489,503,620.0,1
2222,492,506,619.0,1
2223,490,509,617.0,1
2224,493,514,617.0,1
2225,497,516,617.0,1
2226,505,516,620.0,1
2227,503,512,620.0,1
2228,497,512,618.0,1
2229,498,515,617.0,1
2230,500,515,617.0,1
2231,501,511,619.0,1
2232,498,505,620.0,1
2233,491,502,618.0,1
2234,491,506,618.0,1
2235,496,512,617.0,1
2236,500,511,618.0,1
2237,510,514,620.0,1
2238,508,512,619.0,1
2239,498,509,618.0,1
2240,494,507,617.0,1
2241,497,508,618.0,1
2242,501,505,620.0,1
2243,501,503,620.0,1
2244,494,502,618.0,1
2245,492,503,618.0,1
2246,496,507,618.0,1
2247,508,513,620.0,1
2248,517,515,621.0,1
2249,514,516,619.0,1
2250,509,516,618.0,1
2251,510,518,618.0,1
2252,511,517,619.0,1
2253,520,517,621.0,1
2254,509,509,620.0,1
2255,494,503,618.0,1
2256,490,503,618.0,1
2257,492,503,618.0,1
2258,509,510,621.0,1
2259,518,516,621.0,1
2260,513,516,619.0,1
2261,503,511,618.0,1
2262,498,507,618.0,1
2263,500,505,620.0,1
2264,505,504,622.0,1
2265,501,504,620.0,1
2266,494,503,619.0,1
2267,493,503,618.0,1
2268,496,503,619.0,1
2269,507,506,622.0,1
2270,509,509,620.0,1
2271,508,512,619.0,1
2272,504,511,618.0,1
2273,508,513,619.0,1
2274,512,510,621.0,1
2275,517,511,621.0,1
2276,512,513,620.0,1
2277,506,510,619.0,1
2278,501,505,619.0,1
2279,505,503,621.0,1
2280,512,503,622.0,1
2281,515,506,620.0,1
2282,516,511,619.0,1
2283,516,511,619.0,1
2284,525,515,620.0,1
2285,533,512,622.0,1
2286,538,512,621.0,1
2287,535,510,620.0,1
2288,536,511,619.0,1
2289,535,510,619.0,1
2290,533,506,622.0,1
2291,531,504,622.0,1
2292,527,506,620.0,1
2293,530,515,619.0,1
2294,531,518,619.0,1
2295,530,517,621.0,1
2296,530,517,623.0,1
2297,520,517,621.0,1
2298,510,518,620.0,1
2299,501,515,619.0,1
2300,499,513,620.0,1
2301,501,511,623.0,1
2302,492,504,622.0,1
2303,483,504,620.0,1
2304,485,508,620.0,1
2305,488,510,620.0,1
2306,497,511,622.0,1
2307,501,511,622.0,1
2308,492,510,621.0,1
2309,493,514,620.0,1
2310,493,515,620.0,1
2311,494,514,622.0,1
2312,496,509,623.0,1
2313,495,504,621.0,1
2314,504,502,620.0,1
2315,529,503,620.0,1
2316,573,508,621.0,1
2317,635,515,623.0,1
2318,688,516,622.0,1
2319,725,516,621.0,1
2320,742,516,620.0,1
2321,716,517,620.0,1
2322,655,517,623.0,1
2323,590,517,623.0,1
2324,523,510,621.0,1
2325,470,505,621.0,1
2326,449,504,620.0,1
2327,457,509,622.0,1
2328,468,514,624.0,1
2329,457,510,622.0,1
2330,448,508,621.0,1
2331,449,512,620.0,1
2332,452,513,621.0,1
2333,457,511,623.0,1
2334,457,510,623.0,1
2335,450,509,621.0,1
2336,446,506,621.0,1
2337,447,504,621.0,1
2338,454,503,623.0,1
2339,464,506,623.0,1
2340,465,509,622.0,1
2341,465,511,621.0,1
2342,467,511,621.0,1
2343,476,513,622.0,1
2344,485,513,624.0,1
2345,481,511,622.0,1
2346,475,509,621.0,1
2347,471,506,621.0,1
2348,472,504,621.0,1
2349,481,503,624.0,1
2350,484,503,623.0,1
2351,486,510,622.0,1
2352,492,516,621.0,1
2353,496,517,621.0,1
2354,504,515,623.0,1
2355,511,516,624.0,1
2356,507,516,622.0,1
2357,505,515,621.0,1
2358,505,515,621.0,1
2359,501,508,623.0,1
2360,504,504,624.0,1
2361,500,502,623.0,1
2362,504,510,622.0,1
2363,507,511,621.0,1
2364,514,514,622.0,1
2365,525,515,624.0,1
2366,523,511,624.0,1
2367,513,508,622.0,1
2368,511,508,622.0,1
2369,518,512,621.0,1
2370,527,513,624.0,1
2371,529,510,624.0,1
2372,517,504,623.0,1
2373,511,503,622.0,1
2374,517,507,622.0,1
2375,530,513,623.0,1
2376,541,516,625.0,1
2377,540,517,623.0,1
2378,534,516,622.0,1
2379,532,516,622.0,1
2380,530,512,622.0,1
2381,539,514,625.0,1
2382,533,510,624.0,1
2383,518,504,623.0,1
2384,514,503,622.0,1
2385,513,503,622.0,1
2386,523,507,624.0,1
2387,535,514,625.0,1
2388,530,515,623.0,1
2389,523,516,622.0,1
2390,520,517,622.0,1
2391,521,517,623.0,1
2392,523,516,625.0,1
2393,508,509,624.0,1
2394,492,504,623.0,1
2395,486,503,622.0,1
2396,485,503,623.0,1
2397,497,509,625.0,1
2398,501,512,625.0,1
2399,495,513,623.0,1
2400,488,511,622.0,1
2401,484,509,622.0,1
2402,486,506,625.0,1
2403,490,505,625.0,1
2404,484,504,624.0,1
2405,480,505,623.0,1
2406,480,504,622.0,1
2407,483,503,624.0,1
2408,490,503,626.0,1
2409,492,506,624.0,1
2410,490,508,623.0,1
2411,494,513,623.0,1
2412,500,516,623.0,1
2413,508,515,626.0,1
2414,509,514,625.0,1
2415,505,516,624.0,1
2416,502,516,623.0,1
2417,495,509,623.0,1
2418,495,505,625.0,1
2419,498,503,626.0,1
2420,493,502,624.0,1
2421,494,506,623.0,1
2422,500,511,623.0,1
2423,504,512,624.0,1
2424,513,513,626.0,1
2425,510,511,625.0,1
2426,503,510,624.0,1
2427,503,512,623.0,1
2428,507,514,624.0,1
2429,511,511,626.0,1
2430,508,508,626.0,1
2431,497,504,624.0,1
2432,498,507,623.0,1
2433,505,513,623.0,1
2434,512,514,625.0,1
2435,518,514,627.0,1
2436,513,514,625.0,1
2437,508,515,624.0,1
2438,508,515,624.0,1
2439,507,512,625.0,1
2440,516,513,627.0,1
2441,511,511,626.0,1
2442,496,504,624.0,1
2443,493,503,624.0,1
2444,499,507,624.0,1
2445,514,513,627.0,1
2446,520,515,627.0,1
2447,513,514,625.0,1
2448,506,512,624.0,1
2449,510,514,624.0,1
2450,516,515,626.0,1
2451,521,515,627.0,1
2452,507,508,625.0,1
2453,495,503,624.0,1
2454,494,503,624.0,1
2455,496,502,625.0,1
2456,509,505,627.0,1
2457,518,513,626.0,1
2458,516,516,625.0,1
2459,515,516,624.0,1
2460,517,515,625.0,1
2461,525,513,627.0,1
2462,530,513,627.0,1
2463,525,513,625.0,1
2464,518,510,625.0,1
2465,512,504,624.0,1
2466,518,502,626.0,1
2467,536,506,628.0,1
2468,542,512,626.0,1
2469,532,508,625.0,1
2470,531,509,625.0,1
2471,538,515,626.0,1
2472,544,516,628.0,1
2473,539,513,627.0,1
2474,529,513,625.0,1
2475,524,515,625.0,1
2476,514,512,625.0,1
2477,506,505,627.0,1
2478,502,503,628.0,1
2479,496,506,626.0,1
2480,497,512,625.0,1
2481,497,514,625.0,1
2482,497,512,627.0,1
2483,506,515,628.0,1
2484,501,515,626.0,1
2485,492,514,625.0,1
2486,488,511,625.0,1
2487,487,508,626.0,1
2488,490,504,628.0,1
2489,489,502,627.0,1
2490,481,502,626.0,1
2491,484,509,625.0,1
2492,492,516,625.0,1
2493,505,517,628.0,1
2494,515,514,628.0,1
2495,526,511,626.0,1
2496,551,512,626.0,1
2497,594,513,625.0,1
2498,646,512,627.0,1
2499,696,507,629.0,1
2500,727,503,627.0,1
2501,727,502,626.0,1
2502,684,507,626.0,1
2503,621,513,627.0,1
2504,567,516,629.0,1
2505,518,516,628.0,1
2506,479,516,626.0,1
2507,464,513,626.0,1
2508,463,513,626.0,1
2509,466,512,628.0,1
2510,466,512,629.0,1
2511,452,508,627.0,1
2512,442,504,626.0,1
2513,439,503,626.0,1
2514,448,506,628.0,1
2515,462,511,629.0,1
2516,460,510,628.0,1
2517,459,513,626.0,1
2518,461,514,626.0,1
2519,465,513,627.0,1
2520,473,511,629.0,1
2521,478,513,628.0,1
2522,466,507,627.0,1
2523,461,503,626.0,1
2524,464,505,626.0,1
2525,471,504,628.0,1
2526,480,506,629.0,1
2527,482,510,627.0,1
2528,482,511,626.0,1
2529,479,508,626.0,1
2530,490,512,628.0,1
2531,501,514,629.0,1
2532,497,513,628.0,1
2533,486,508,627.0,1
2534,482,505,626.0,1
2535,485,504,627.0,1
2536,495,504,629.0,1
2537,507,510,629.0,1
2538,505,512,627.0,1
2539,505,514,627.0,1
2540,507,514,626.0,1
2541,509,510,629.0,1
2542,509,506,629.0,1
2543,501,503,627.0,1
2544,498,503,627.0,1
2545,504,508,626.0,1
2546,508,507,628.0,1
2547,514,505,630.0,1
2548,512,504,628.0,1
2549,513,508,627.0,1
2550,515,510,627.0,1
2551,522,513,627.0,1
2552,533,514,629.0,1
2553,536,515,629.0,1
2554,524,511,627.0,1
2555,521,510,627.0,1
2556,521,509,627.0,1
2557,525,506,629.0,1
2558,531,507,630.0,1
2559,522,505,628.0,1
2560,517,504,627.0,1
2561,521,507,627.0,1
2562,532,513,628.0,1
2563,535,511,630.0,1
2564,536,514,629.0,1
2565,529,515,627.0,1
2566,527,515,627.0,1
2567,524,512,627.0,1
2568,531,513,630.0,1
2569,525,509,629.0,1
2570,508,504,628.0,1
2571,501,504,627.0,1
2572,502,507,627.0,1
2573,510,512,629.0,1
2574,516,514,630.0,1
2575,507,514,628.0,1
2576,501,514,627.0,1
2577,500,516,627.0,1
2578,503,517,628.0,1
2579,508,516,630.0,1
2580,503,515,629.0,1
2581,490,510,628.0,1
2582,482,505,627.0,1
2583,480,503,627.0,1
2584,495,510,630.0,1
2585,503,514,630.0,1
2586,498,515,628.0,1
2587,496,516,627.0,1
2588,493,513,627.0,1
2589,500,514,629.0,1
2590,503,512,630.0,1
2591,498,511,628.0,1
2592,491,509,627.0,1
2593,486,504,627.0,1
2594,488,503,628.0,1
2595,496,503,630.0,1
2596,499,506,629.0,1
2597,502,513,628.0,1
2598,505,516,627.0,1
2599,508,516,627.0,1
2600,514,515,630.0,1
2601,515,514,630.0,1
2602,511,517,628.0,1
2603,508,517,627.0,1
2604,500,510,627.0,1
2605,499,504,629.0,1
2606,502,503,630.0,1
2607,500,505,628.0,1
2608,502,511,627.0,1
2609,504,513,627.0,1
2610,507,513,628.0,1
2611,517,515,630.0,1
2612,517,516,629.0,1
2613,509,515,627.0,1
2614,507,514,627.0,1
2615,509,515,627.0,1
2616,511,511,630.0,1
2617,505,505,630.0,1
2618,493,502,628.0,1
2619,500,510,627.0,1
2620,506,515,627.0,1
2621,508,511,629.0,1
2622,511,509,630.0,1
2623,510,512,628.0,1
2624,507,514,627.0,1
2625,507,514,627.0,1
2626,505,511,628.0,1
2627,506,505,630.0,1
2628,501,502,629.0,1
2629,493,501,627.0,1
2630,492,502,627.0,1
2631,498,506,627.0,1
2632,514,513,629.0,1
2633,520,514,629.0,1
2634,513,514,627.0,1
2635,508,513,627.0,1
2636,513,517,626.0,1
2637,518,517,628.0,1
2638,524,516,630.0,1
2639,510,509,628.0,1
2640,497,504,627.0,1
2641,494,503,626.0,1
2642,502,507,627.0,1
2643,518,513,629.0,1
2644,523,516,628.0,1
2645,518,516,627.0,1
2646,518,516,626.0,1
2647,518,514,626.0,1
2648,524,513,629.0,1
2649,527,513,629.0,1
2650,518,510,627.0,1
2651,515,508,626.0,1
2652,516,504,626.0,1
2653,525,502,628.0,1
2654,539,506,629.0,1
2655,541,512,627.0,1
2656,533,510,626.0,1
2657,534,515,626.0,1
2658,536,516,627.0,1
2659,540,514,629.0,1
2660,532,511,628.0,1
2661,522,513,626.0,1
2662,511,511,626.0,1
2663,498,505,626.0,1
2664,498,503,628.0,1
2665,497,503,628.0,1
2666,496,510,626.0,1
2667,496,516,625.0,1
2668,495,516,625.0,1
2669,499,516,627.0,1
2670,507,517,628.0,1
2671,502,516,627.0,1
2672,495,516,626.0,1
2673,489,511,625.0,1
2674,489,508,626.0,1
2675,491,503,628.0,1
2676,488,502,627.0,1
2677,481,505,625.0,1
2678,487,513,625.0,1
2679,496,516,625.0,1
2680,517,516,627.0,1
2681,539,515,627.0,1
2682,560,515,626.0,1
2683,602,515,625.0,1
2684,659,516,624.0,1
2685,715,513,626.0,1
2686,750,506,628.0,1
2687,741,502,626.0,1
2688,677,502,625.0,1
2689,601,503,624.0,1
2690,537,504,625.0,1
2691,498,507,627.0,1
2692,480,510,626.0,1
2693,466,512,625.0,1
2694,455,510,624.0,1
2695,450,510,624.0,1
2696,452,510,626.0,1
2697,450,507,627.0,1
2698,439,503,625.0,1
2699,434,503,624.0,1
2700,435,503,623.0,1
2701,443,505,625.0,1
2702,457,510,627.0,1
2703,457,510,625.0,1
2704,455,511,623.0,1
2705,456,511,623.0,1
2706,461,511,624.0,1
2707,469,510,626.0,1
2708,474,513,625.0,1
2709,464,509,623.0,1
2710,460,505,623.0,1
2711,461,503,623.0,1
2712,474,507,625.0,1
2713,488,514,625.0,1
2714,484,513,623.0,1
2715,479,511,622.0,1
2716,482,511,622.0,1
2717,492,515,624.0,1
2718,501,515,625.0,1
2719,499,513,623.0,1
2720,493,513,622.0,1
2721,489,509,622.0,1
2722,487,505,622.0,1
2723,494,504,624.0,1
2724,499,505,624.0,1
2725,503,512,622.0,1
2726,507,517,621.0,1
2727,510,517,621.0,1
2728,515,514,623.0,1
2729,521,514,624.0,1
2730,517,514,622.0,1
2731,513,514,621.0,1
2732,508,510,621.0,1
2733,507,505,622.0,1
2734,514,504,624.0,1
2735,512,503,622.0,1
2736,510,505,621.0,1
2737,516,511,620.0,1
2738,525,515,621.0,1
2739,536,516,623.0,1
2740,538,515,622.0,1
2741,526,510,621.0,1
2742,526,513,620.0,1
2743,525,512,620.0,1
2744,524,506,622.0,1
2745,528,504,623.0,1
2746,523,504,621.0,1
2747,519,505,620.0,1
2748,521,508,619.0,1
2749,529,512,621.0,1
2750,537,513,622.0,1
2751,538,515,621.0,1
2752,531,515,620.0,1
2753,528,515,619.0,1
2754,525,513,619.0,1
2755,528,511,622.0,1
2756,523,509,621.0,1
2757,506,504,619.0,1
2758,499,503,619.0,1
2759,501,507,618.0,1
2760,510,512,620.0,1
2761,516,515,621.0,1
2762,508,514,619.0,1
2763,503,517,618.0,1
2764,500,517,618.0,1
2765,501,517,619.0,1
2766,504,515,621.0,1
2767,491,507,619.0,1
2768,479,503,618.0,1
2769,476,503,617.0,1
2770,477,503,618.0,1
2771,494,511,620.0,1
2772,502,515,620.0,1
2773,497,515,618.0,1
2774,493,515,617.0,1
2775,488,510,617.0,1
2776,497,512,619.0,1
2777,507,515,620.0,1
2778,503,515,618.0,1
2779,493,511,617.0,1
2780,485,505,616.0,1
2781,486,503,617.0,1
2782,497,506,619.0,1
2783,502,510,618.0,1
2784,499,512,616.0,1
2785,502,516,616.0,1
2786,504,516,616.0,1
2787,512,516,618.0,1
2788,513,514,618.0,1
2789,507,515,616.0,1
2790,499,511,615.0,1
2791,492,505,615.0,1
2792,494,503,617.0,1
2793,500,502,618.0,1
2794,505,509,616.0,1
2795,507,515,615.0,1
2796,507,516,615.0,1
2797,510,516,616.0,1
2798,517,516,618.0,1
2799,516,516,616.0,1
2800,505,513,615.0,1
2801,496,508,614.0,1
2802,494,506,614.0,1
2803,499,503,617.0,1
2804,500,503,616.0,1
2805,493,502,614.0,1
2806,500,510,614.0,1
2807,506,515,613.0,1
2808,509,514,615.0,1
2809,512,510,616.0,1
2810,506,509,614.0,1
2811,502,510,613.0,1
2812,505,513,613.0,1
2813,507,513,614.0,1
2814,510,510,616.0,1
2815,503,505,615.0,1
2816,494,503,613.0,1
2817,494,506,612.0,1
2818,500,509,613.0,1
2819,513,514,615.0,1
2820,518,516,615.0,1
2821,509,513,613.0,1
2822,507,514,612.0,1
2823,508,515,612.0,1
2824,514,516,614.0,1
2825,516,513,615.0,1
2826,504,507,613.0,1
2827,495,504,612.0,1
2828,493,503,611.0,1
2829,495,504,612.0,1
2830,507,507,614.0,1
2831,515,512,613.0,1
2832,509,511,612.0,1
2833,511,513,611.0,1
2834,513,512,611.0,1
2835,522,513,613.0,1
2836,529,514,613.0,1
2837,516,509,611.0,1
2838,509,504,611.0,1
2839,511,503,610.0,1
2840,525,506,612.0,1
2841,537,508,613.0,1
2842,537,509,611.0,1
2843,531,509,610.0,1
2844,532,513,610.0,1
2845,535,515,611.0,1
2846,539,514,613.0,1
2847,533,512,612.0,1
2848,526,515,610.0,1
2849,514,513,609.0,1
2850,500,507,609.0,1
2851,499,505,612.0,1
2852,502,507,612.0,1
2853,500,511,610.0,1
2854,497,515,609.0,1
2855,495,515,609.0,1
2856,496,514,610.0,1
2857,504,514,612.0,1
2858,499,514,610.0,1
2859,494,513,609.0,1
2860,486,508,608.0,1
2861,483,504,609.0,1
2862,488,503,611.0,1
2863,488,502,610.0,1
2864,487,507,609.0,1
2865,490,514,608.0,1
2866,494,516,608.0,1
2867,508,517,610.0,1
2868,527,517,611.0,1
2869,543,516,609.0,1
2870,571,513,608.0,1
2871,624,515,608.0,1
2872,680,510,609.0,1
2873,729,505,611.0,1
2874,747,503,609.0,1
2875,708,502,608.0,1
2876,639,505,607.0,1
2877,573,508,608.0,1
2878,529,513,610.0,1
2879,496,515,609.0,1
2880,477,515,608.0,1
2881,465,515,607.0,1
2882,459,515,607.0,1
2883,459,514,609.0,1
2884,455,508,610.0,1
2885,442,503,608.0,1
2886,437,503,607.0,1
2887,441,507,607.0,1
2888,453,514,608.0,1
2889,464,515,610.0,1
2890,462,514,608.0,1
2891,460,515,607.0,1
2892,460,514,606.0,1
2893,463,514,607.0,1
2894,470,512,609.0,1
2895,468,508,608.0,1
2896,459,504,607.0,1
2897,457,503,606.0,1
2898,459,503,606.0,1
2899,471,506,608.0,1
2900,487,513,609.0,1
2901,485,514,606.0,1
2902,479,510,606.0,1
2903,479,509,605.0,1
2904,487,512,607.0,1
2905,494,511,608.0,1
2906,493,510,607.0,1
2907,486,506,606.0,1
2908,483,504,605.0,1
2909,484,503,605.0,1
2910,492,503,608.0,1
2911,501,507,607.0,1
2912,506,515,605.0,1
2913,509,518,605.0,1
2914,509,517,605.0,1
2915,515,516,607.0,1
2916,523,516,607.0,1
2917,520,517,605.0,1
2918,517,517,605.0,1
2919,507,510,604.0,1
2920,505,504,606.0,1
2921,512,502,607.0,1
2922,521,510,606.0,1
2923,519,512,604.0,1
2924,518,512,604.0,1
2925,524,515,605.0,1
2926,534,516,607.0,1
2927,534,513,606.0,1
2928,528,512,604.0,1
2929,527,514,604.0,1
2930,521,510,603.0,1
2931,521,505,606.0,1
2932,524,503,607.0,1
2933,519,502,605.0,1
2934,525,510,604.0,1
2935,528,515,603.0,1
2936,525,510,605.0,1
2937,537,513,606.0,1
2938,539,517,605.0,1
2939,534,517,603.0,1
2940,524,513,603.0,1
2941,523,513,604.0,1
2942,524,509,606.0,1
2943,518,504,605.0,1
2944,506,502,604.0,1
2945,499,502,603.0,1
2946,502,508,603.0,1
2947,512,514,605.0,1
2948,515,514,606.0,1
2949,505,511,604.0,1
2950,502,514,603.0,1
2951,500,516,602.0,1
2952,501,515,604.0,1
2953,505,514,606.0,1
2954,497,510,604.0,1
2955,484,504,603.0,1
2956,478,503,602.0,1
2957,485,508,603.0,1
2958,499,514,605.0,1
2959,504,515,605.0,1
2960,497,514,603.0,1
2961,494,514,602.0,1
2962,491,512,602.0,1
2963,498,514,604.0,1
2964,505,514,605.0,1
2965,496,510,603.0,1
2966,487,505,602.0,1
2967,483,504,602.0,1
2968,487,505,603.0,1
2969,496,504,605.0,1
2970,498,505,604.0,1
2971,499,510,602.0,1
2972,498,512,602.0,1
2973,499,512,602.0,1
2974,504,509,605.0,1
2975,510,511,604.0,1
2976,508,514,603.0,1
2977,500,511,602.0,1
2978,492,506,601.0,1
2979,494,503,604.0,1
2980,506,507,605.0,1
2981,508,512,603.0,1
2982,506,514,602.0,1
2983,499,511,602.0,1
2984,505,514,603.0,1
2985,515,515,605.0,1
2986,517,515,603.0,1
2987,508,513,602.0,1
2988,505,514,601.0,1
2989,501,511,602.0,1
2990,501,505,604.0,1
2991,503,504,604.0,1
2992,501,507,602.0,1
2993,505,513,601.0,1
2994,506,515,601.0,1
2995,509,513,603.0,1
2996,515,513,604.0,1
2997,507,509,602.0,1
2998,506,512,601.0,1
2999,506,515,601.0,1
3000,502,510,602.0,1
3001,504,505,604.0,1
3002,501,504,603.0,1
3003,495,503,601.0,1
3004,497,507,601.0,1
3005,504,513,601.0,1
3006,513,515,603.0,1
3007,519,515,603.0,1
3008,511,512,602.0,1
3009,509,514,601.0,1
3010,509,516,600.0,1
3011,514,516,602.0,1
3012,516,512,604.0,1
3013,504,505,602.0,1
3014,497,503,601.0,1
3015,499,507,601.0,1
3016,507,512,602.0,1
3017,518,515,604.0,1
3018,521,517,602.0,1
3019,516,516,601.0,1
3020,512,516,600.0,1
3021,505,511,601.0,1
3022,512,511,603.0,1
3023,520,514,603.0,1
3024,512,511,601.0,1
3025,504,505,600.0,1
3026,501,503,600.0,1
3027,509,505,602.0,1
3028,519,506,603.0,1
3029,518,507,602.0,1
3030,518,510,601.0,1
3031,516,510,600.0,1
3032,524,511,601.0,1
3033,539,512,603.0,1
3034,544,512,602.0,1
3035,536,510,601.0,1
3036,526,505,600.0,1
3037,522,504,600.0,1
3038,524,503,603.0,1
3039,531,506,603.0,1
3040,533,513,601.0,1
3041,529,517,600.0,1
3042,520,517,600.0,1
3043,519,518,602.0,1
3044,521,517,603.0,1
3045,514,516,601.0,1
3046,500,512,600.0,1
3047,486,506,600.0,1
3048,481,503,601.0,1
3049,487,503,603.0,1
3050,491,505,602.0,1
3051,491,509,600.0,1
3052,494,514,600.0,1
3053,494,515,600.0,1
3054,499,513,602.0,1
3055,497,507,602.0,1
3056,494,508,601.0,1
3057,493,513,600.0,1
3058,489,514,599.0,1
3059,485,508,601.0,1
3060,496,505,603.0,1
3061,508,504,601.0,1
3062,528,506,600.0,1
3063,563,508,599.0,1
3064,619,511,600.0,1
3065,687,512,602.0,1
3066,735,511,602.0,1
3067,749,509,600.0,1
3068,711,510,599.0,1
3069,641,511,599.0,1
3070,574,507,602.0,1
3071,520,505,602.0,1
3072,479,504,600.0,1
3073,461,504,599.0,1
3074,459,511,599.0,1
3075,462,515,601.0,1
3076,466,515,602.0,1
3077,464,516,600.0,1
3078,458,517,599.0,1
3079,453,517,599.0,1
3080,445,510,600.0,1
3081,447,505,602.0,1
3082,449,505,601.0,1
3083,446,505,599.0,1
3084,448,507,599.0,1
3085,448,506,599.0,1
3086,454,504,601.0,1
3087,461,504,601.0,1
3088,459,503,600.0,1
3089,459,504,599.0,1
3090,459,504,598.0,1
3091,463,504,600.0,1
3092,474,504,602.0,1
3093,474,504,600.0,1
3094,473,504,599.0,1
3095,474,507,598.0,1
3096,475,505,599.0,1
3097,487,507,601.0,1
3098,498,512,601.0,1
3099,498,514,599.0,1
3100,497,515,598.0,1
3101,494,513,598.0,1
3102,501,512,601.0,1
3103,510,513,601.0,1
3104,509,514,599.0,1
3105,501,510,599.0,1
3106,494,505,598.0,1
3107,496,504,599.0,1
3108,505,503,601.0,1
3109,508,505,600.0,1
3110,505,505,599.0,1
3111,503,507,598.0,1
3112,504,507,599.0,1
3113,513,506,601.0,1
3114,519,507,601.0,1
3115,522,512,599.0,1
3116,523,515,598.0,1
3117,516,509,598.0,1
3118,519,506,600.0,1
3119,525,505,601.0,1
3120,528,510,599.0,1
3121,529,515,598.0,1
3122,529,516,598.0,1
3123,529,513,600.0,1
3124,541,515,601.0,1
3125,543,516,600.0,1
3126,540,517,599.0,1
3127,532,514,598.0,1
3128,531,513,599.0,1
3129,535,510,601.0,1
3130,533,506,601.0,1
3131,525,504,599.0,1
3132,525,508,599.0,1
3133,528,513,598.0,1
3134,533,514,601.0,1
3135,538,514,602.0,1
3136,533,515,600.0,1
3137,524,516,599.0,1
3138,518,517,598.0,1
3139,517,517,600.0,1
3140,512,510,602.0,1
3141,503,504,600.0,1
3142,493,503,599.0,1
3143,487,503,599.0,1
3144,488,507,599.0,1
3145,504,515,601.0,1
3146,508,517,601.0,1
3147,502,516,600.0,1
3148,495,515,599.0,1
3149,492,515,599.0,1
3150,498,516,601.0,1
3151,504,516,602.0,1
3152,495,511,600.0,1
3153,484,505,599.0,1
3154,480,505,599.0,1
3155,486,508,600.0,1
3156,500,513,602.0,1
3157,499,511,601.0,1
3158,499,514,599.0,1
3159,498,516,599.0,1
3160,500,518,599.0,1
3161,505,515,602.0,1
3162,511,517,602.0,1
3163,507,517,600.0,1
3164,495,511,599.0,1
3165,488,505,599.0,1
3166,490,503,601.0,1
3167,501,506,602.0,1
3168,506,512,600.0,1
3169,504,514,600.0,1
3170,503,515,599.0,1
3171,507,516,600.0,1
3172,516,517,602.0,1
3173,516,516,601.0,1
3174,506,511,600.0,1
3175,498,509,599.0,1
3176,492,505,600.0,1
3177,497,503,602.0,1
3178,501,503,602.0,1
3179,506,510,600.0,1
3180,510,515,600.0,1
3181,509,516,599.0,1
3182,511,515,601.0,1
3183,519,515,603.0,1
3184,516,516,601.0,1
3185,512,516,600.0,1
3186,505,514,600.0,1
3187,499,508,601.0,1
3188,504,505,603.0,1
3189,502,503,602.0,1
3190,505,509,600.0,1
3191,504,512,600.0,1
3192,506,514,600.0,1
3193,512,512,603.0,1
3194,518,514,603.0,1
3195,508,510,601.0,1
3196,507,512,600.0,1
3197,507,514,600.0,1
3198,513,515,602.0,1
3199,515,511,603.0,1
3200,504,504,602.0,1
3201,498,503,600.0,1
3202,500,507,600.0,1
3203,508,512,601.0,1
3204,520,516,603.0,1
3205,522,516,602.0,1
3206,516,516,601.0,1
3207,510,514,600.0,1
3208,501,508,601.0,1
3209,509,510,603.0,1
3210,512,508,603.0,1
3211,501,504,601.0,1
3212,496,503,601.0,1
3213,494,503,601.0,1
3214,508,511,602.0,1
3215,522,515,604.0,1
3216,520,515,602.0,1
3217,514,512,601.0,1
3218,512,513,601.0,1
3219,516,514,602.0,1
3220,521,511,604.0,1
3221,524,510,603.0,1
3222,518,509,602.0,1
3223,509,505,601.0,1
3224,507,503,601.0,1
3225,522,506,604.0,1
3226,543,514,604.0,1
3227,545,517,602.0,1
3228,540,516,601.0,1
3229,536,515,601.0,1
3230,540,516,603.0,1
3231,547,517,605.0,1
3232,542,516,603.0,1
3233,526,510,602.0,1
3234,516,508,601.0,1
3235,505,504,602.0,1
3236,505,503,604.0,1
3237,505,505,604.0,1
3238,504,511,602.0,1
3239,501,515,602.0,1
3240,496,514,602.0,1
3241,501,513,604.0,1
3242,506,514,605.0,1
3243,502,514,603.0,1
3244,497,514,602.0,1
3245,489,509,602.0,1
3246,487,504,604.0,1
3247,492,503,605.0,1
3248,490,503,604.0,1
3249,493,509,603.0,1
3250,487,508,602.0,1
3251,483,506,603.0,1
3252,494,506,605.0,1
3253,505,505,605.0,1
3254,518,505,603.0,1
3255,547,509,603.0,1
3256,589,512,603.0,1
3257,639,509,605.0,1
3258,690,504,606.0,1
3259,723,502,604.0,1
3260,731,507,603.0,1
3261,691,513,603.0,1
3262,624,513,604.0,1
3263,565,511,606.0,1
3264,516,514,605.0,1
3265,478,515,603.0,1
3266,465,515,603.0,1
3267,459,512,604.0,1
3268,464,511,606.0,1
3269,459,508,605.0,1
3270,446,503,604.0,1
3271,441,503,603.0,1
3272,444,507,603.0,1
3273,457,513,605.0,1
3274,466,514,606.0,1
3275,461,512,604.0,1
3276,462,514,604.0,1
3277,462,514,603.0,1
3278,466,513,605.0,1
3279,475,513,607.0,1
3280,471,509,605.0,1
3281,463,505,604.0,1
3282,460,503,604.0,1
3283,463,504,604.0,1
3284,477,507,607.0,1
3285,489,513,606.0,1
3286,488,515,604.0,1
3287,487,516,604.0,1
3288,484,512,604.0,1
3289,490,511,606.0,1
3290,499,512,607.0,1
3291,497,513,605.0,1
3292,490,509,604.0,1
3293,482,505,604.0,1
3294,484,504,605.0,1
3295,498,507,607.0,1
3296,506,513,606.0,1
3297,504,514,605.0,1
3298,507,518,604.0,1
3299,510,518,605.0,1
3300,519,517,607.0,1
3301,515,511,607.0,1
3302,512,513,605.0,1
3303,512,515,604.0,1
3304,507,511,604.0,1
3305,507,505,607.0,1
3306,513,503,607.0,1
3307,514,506,606.0,1
3308,520,514,605.0,1
3309,521,515,604.0,1
3310,527,516,606.0,1
3311,538,517,608.0,1
3312,538,517,607.0,1
3313,528,512,605.0,1
3314,525,511,605.0,1
3315,521,508,605.0,1
3316,525,505,608.0,1
3317,527,503,607.0,1
3318,521,503,606.0,1
3319,522,507,605.0,1
3320,528,513,605.0,1
3321,536,514,607.0,1
3322,539,512,608.0,1
3323,536,513,606.0,1
3324,532,514,605.0,1
3325,530,515,605.0,1
3326,527,512,606.0,1
3327,527,508,608.0,1
3328,519,504,607.0,1
3329,508,502,606.0,1
3330,506,505,606.0,1
3331,508,510,606.0,1
3332,514,513,608.0,1
3333,516,515,608.0,1
3334,508,515,607.0,1
3335,500,514,606.0,1
3336,499,515,606.0,1
3337,502,516,608.0,1
3338,505,515,609.0,1
3339,492,509,607.0,1
3340,480,504,606.0,1
3341,476,503,606.0,1
3342,481,506,607.0,1
3343,492,509,609.0,1
3344,491,508,608.0,1
3345,490,512,607.0,1
3346,489,513,606.0,1
3347,488,511,606.0,1
3348,497,512,609.0,1
3349,504,514,609.0,1
3350,493,509,607.0,1
3351,484,505,607.0,1
3352,482,504,606.0,1
3353,487,504,608.0,1
3354,498,507,610.0,1
3355,501,512,608.0,1
3356,495,510,607.0,1
3357,499,514,607.0,1
3358,504,516,608.0,1
3359,513,516,610.0,1
3360,509,513,609.0,1
3361,503,513,607.0,1
3362,497,510,607.0,1
3363,491,505,607.0,1
3364,497,504,610.0,1
3365,506,507,610.0,1
3366,507,512,608.0,1
3367,506,514,607.0,1
3368,506,515,607.0,1
3369,508,513,609.0,1
3370,519,516,610.0,1
3371,515,516,609.0,1
3372,509,516,608.0,1
3373,505,514,607.0,1
3374,501,510,608.0,1
3375,504,506,611.0,1
3376,500,503,610.0,1
3377,497,505,608.0,1
3378,502,512,608.0,1
3379,506,514,608.0,1
3380,513,514,610.0,1
3381,516,513,611.0,1
3382,512,514,609.0,1
3383,509,515,608.0,1
3384,507,515,608.0,1
3385,503,508,610.0,1
3386,504,503,611.0,1
3387,497,502,609.0,1
3388,493,502,608.0,1
3389,499,508,608.0,1
3390,498,507,609.0,1
3391,503,505,611.0,1
3392,504,505,610.0,1
3393,498,504,609.0,1
3394,497,505,608.0,1
3395,503,509,609.0,1
3396,514,513,611.0,1
3397,515,511,611.0,1
3398,503,505,609.0,1
3399,500,504,609.0,1
3400,507,508,608.0,1
3401,522,514,610.0,1
3402,532,516,612.0,1
3403,529,515,610.0,1
3404,524,516,609.0,1
3405,522,517,609.0,1
3406,526,517,610.0,1
3407,532,512,612.0,1
3408,539,513,611.0,1
3409,532,509,610.0,1
3410,524,504,609.0,1
3411,523,503,609.0,1
3412,531,506,612.0,1
3413,541,512,612.0,1
3414,536,512,610.0,1
3415,526,510,609.0,1
3416,521,511,609.0,1
3417,522,514,611.0,1
3418,525,513,613.0,1
3419,515,512,611.0,1
3420,499,508,610.0,1
3421,489,505,610.0,1
3422,485,503,610.0,1
3423,490,503,613.0,1
3424,495,508,612.0,1
3425,492,511,610.0,1
3426,494,514,610.0,1
3427,493,513,610.0,1
3428,493,508,612.0,1
3429,500,510,613.0,1
3430,495,510,611.0,1
3431,493,511,610.0,1
3432,487,508,610.0,1
3433,483,504,612.0,1
3434,489,503,613.0,1
3435,497,506,612.0,1
3436,512,511,611.0,1
3437,539,514,610.0,1
3438,575,516,611.0,1
3439,628,515,613.0,1
3440,681,516,613.0,1
3441,718,512,611.0,1
3442,742,514,611.0,1
3443,726,514,611.0,1
3444,662,509,613.0,1
3445,588,505,614.0,1
3446,522,502,612.0,1
3447,481,509,611.0,1
3448,465,514,611.0,1
3449,466,515,612.0,1
3450,472,515,614.0,1
3451,468,515,613.0,1
3452,459,515,611.0,1
3453,452,513,611.0,1
3454,451,511,612.0,1
3455,454,508,614.0,1
3456,452,503,614.0,1
3457,445,502,612.0,1
3458,444,503,611.0,1
3459,451,507,611.0,1
3460,466,513,613.0,1
3461,476,514,614.0,1
3462,472,514,612.0,1
3463,473,515,612.0,1
3464,474,516,611.0,1
3465,479,516,613.0,1
3466,483,512,615.0,1
3467,479,507,613.0,1
3468,470,503,612.0,1
3469,469,504,611.0,1
3470,474,505,612.0,1
3471,487,508,614.0,1
3472,492,509,614.0,1
3473,487,508,612.0,1
3474,487,509,612.0,1
3475,492,511,612.0,1
3476,503,514,614.0,1
3477,512,515,615.0,1
3478,508,514,613.0,1
3479,497,508,612.0,1
3480,492,504,612.0,1
3481,495,502,613.0,1
3482,508,505,615.0,1
3483,510,507,614.0,1
3484,513,514,612.0,1
3485,516,516,612.0,1
3486,517,516,613.0,1
3487,520,511,615.0,1
3488,527,514,615.0,1
3489,523,515,613.0,1
3490,515,510,612.0,1
3491,509,505,612.0,1
3492,513,503,614.0,1
3493,519,504,615.0,1
3494,520,506,614.0,1
3495,525,513,613.0,1
3496,529,516,613.0,1
3497,534,517,614.0,1
3498,543,518,616.0,1
3499,541,517,615.0,1
3500,528,511,613.0,1
3501,522,509,613.0,1
3502,518,506,613.0,1
3503,523,504,616.0,1
3504,526,505,615.0,1
3505,522,507,614.0,1
3506,525,512,613.0,1
3507,527,515,613.0,1
3508,528,512,615.0,1
3509,533,513,616.0,1
3510,529,514,614.0,1
3511,522,515,613.0,1
3512,516,513,613.0,1
3513,514,512,614.0,1
3514,514,510,616.0,1
3515,504,505,615.0,1
3516,493,503,614.0,1
3517,497,511,614.0,1
3518,502,516,614.0,1
3519,507,517,616.0,1
3520,505,514,616.0,1
3521,494,511,614.0,1
3522,493,514,614.0,1
3523,493,515,613.0,1
3524,496,514,616.0,1
3525,496,509,617.0,1
3526,485,504,615.0,1
3527,478,502,614.0,1
3528,477,503,614.0,1
3529,483,505,615.0,1
3530,499,512,617.0,1
3531,504,515,616.0,1
3532,498,515,615.0,1
3533,493,513,614.0,1
3534,489,509,614.0,1
3535,494,507,617.0,1
3536,496,506,617.0,1
3537,488,503,615.0,1
3538,485,503,614.0,1
3539,486,503,614.0,1
3540,496,507,616.0,1
3541,509,512,617.0,1
3542,505,511,616.0,1
3543,503,513,615.0,1
3544,503,514,614.0,1
3545,507,515,615.0,1
3546,511,512,618.0,1
3547,510,512,617.0,1
3548,505,512,615.0,1
3549,499,510,615.0,1
3550,494,505,615.0,1
3551,498,503,617.0,1
3552,507,507,617.0,1
3553,507,513,616.0,1
3554,506,514,615.0,1
3555,502,511,615.0,1
3556,509,513,617.0,1
3557,513,512,618.0,1
3558,512,513,616.0,1
3559,504,511,615.0,1
3560,497,507,615.0,1
3561,495,504,616.0,1
3562,501,502,618.0,1
3563,500,502,617.0,1
3564,497,504,616.0,1
3565,499,508,615.0,1
3566,502,510,615.0,1
3567,513,513,617.0,1
3568,518,514,618.0,1
3569,513,514,616.0,1
3570,511,516,615.0,1
3571,510,516,615.0,1
3572,506,510,617.0,1
3573,507,505,619.0,1
3574,502,503,617.0,1
3575,499,505,616.0,1
3576,506,512,615.0,1
3577,514,516,616.0,1
3578,522,516,618.0,1
3579,522,516,618.0,1
3580,510,512,616.0,1
3581,507,512,616.0,1
3582,509,514,616.0,1
3583,519,515,618.0,1
3584,519,512,619.0,1
3585,506,504,617.0,1
3586,502,503,616.0,1
3587,507,506,615.0,1
3588,514,507,617.0,1
3589,528,512,619.0,1
3590,530,515,617.0,1
3591,526,516,616.0,1
3592,528,516,616.0,1
3593,531,512,617.0,1
3594,543,512,619.0,1
3595,543,510,618.0,1
3596,529,504,617.0,1
3597,522,503,616.0,1
3598,520,502,616.0,1
3599,528,506,619.0,1
3600,539,512,619.0,1
3601,529,512,617.0,1
3602,518,512,616.0,1
3603,512,513,616.0,1
3604,512,515,618.0,1
3605,514,514,620.0,1
3606,508,514,618.0,1
3607,493,509,617.0,1
3608,482,504,617.0,1
3609,480,503,617.0,1
3610,493,507,619.0,1
3611,502,514,619.0,1
3612,498,515,617.0,1
3613,496,516,617.0,1
3614,494,514,617.0,1
3615,495,509,619.0,1
3616,505,514,620.0,1
3617,500,515,618.0,1
3618,493,515,617.0,1
3619,484,508,617.0,1
3620,488,503,618.0,1
3621,508,502,620.0,1
3622,537,510,619.0,1
3623,566,511,617.0,1
3624,618,514,617.0,1
3625,680,515,618.0,1
3626,737,515,620.0,1
3627,760,511,620.0,1
3628,728,509,618.0,1
3629,660,514,617.0,1
3630,581,508,617.0,1
3631,521,504,620.0,1
3632,483,502,620.0,1
3633,462,502,618.0,1
3634,455,506,618.0,1
3635,457,513,617.0,1
3636,460,516,619.0,1
3637,466,517,621.0,1
3638,462,517,619.0,1
3639,454,516,618.0,1
3640,452,516,618.0,1
3641,454,515,618.0,1
3642,453,508,620.0,1
3643,452,504,620.0,1
3644,445,502,618.0,1
3645,454,510,618.0,1
3646,462,515,618.0,1
3647,472,516,620.0,1
3648,479,516,621.0,1
3649,477,516,619.0,1
3650,475,516,618.0,1
3651,477,517,618.0,1
3652,480,515,619.0,1
3653,490,516,621.0,1
3654,481,509,620.0,1
3655,471,503,618.0,1
3656,470,503,618.0,1
3657,480,509,618.0,1
3658,496,514,621.0,1
3659,499,513,620.0,1
3660,493,512,619.0,1
3661,491,512,618.0,1
3662,493,512,618.0,1
3663,498,510,620.0,1
3664,507,512,621.0,1
3665,498,506,619.0,1
3666,490,504,618.0,1
3667,490,503,618.0,1
3668,494,503,619.0,1
3669,509,506,622.0,1
3670,519,514,620.0,1
3671,517,516,619.0,1
3672,517,518,618.0,1
3673,515,514,619.0,1
3674,515,507,621.0,1
3675,516,505,621.0,1
3676,509,504,619.0,1
3677,506,504,619.0,1
3678,507,503,618.0,1
3679,513,503,621.0,1
3680,526,507,622.0,1
3681,528,512,620.0,1
3682,526,514,619.0,1
3683,527,515,619.0,1
3684,531,515,620.0,1
3685,539,515,622.0,1
3686,535,512,621.0,1
3687,531,515,619.0,1
3688,531,515,619.0,1
3689,524,509,619.0,1
3690,526,506,622.0,1
3691,525,504,622.0,1
3692,521,506,620.0,1
3693,521,510,619.0,1
3694,519,510,619.0,1
3695,522,511,621.0,1
3696,528,512,622.0,1
3697,519,511,620.0,1
3698,513,513,620.0,1
3699,506,512,619.0,1
3700,500,508,620.0,1
3701,500,504,622.0,1
3702,495,502,621.0,1
3703,485,502,620.0,1
3704,490,509,619.0,1
3705,496,515,620.0,1
3706,504,516,622.0,1
3707,504,515,622.0,1
3708,497,515,620.0,1
3709,495,517,620.0,1
3710,494,517,620.0,1
3711,496,514,621.0,1
3712,493,507,623.0,1
3713,484,503,621.0,1
3714,478,502,620.0,1
3715,487,509,620.0,1
3716,496,513,621.0,1
3717,507,516,623.0,1
3718,508,515,622.0,1
3719,501,514,620.0,1
3720,496,512,620.0,1
3721,496,511,620.0,1
3722,506,513,622.0,1
3723,512,515,623.0,1
3724,500,510,621.0,1
3725,490,505,620.0,1
3726,487,503,620.0,1
3727,500,510,622.0,1
3728,512,513,623.0,1
3729,509,513,622.0,1
3730,506,515,621.0,1
3731,505,516,620.0,1
3732,507,515,621.0,1
3733,512,512,623.0,1
3734,517,516,622.0,1
3735,503,510,621.0,1
3736,493,505,620.0,1
3737,491,503,620.0,1
3738,497,502,623.0,1
3739,510,508,623.0,1
3740,510,513,621.0,1
3741,505,513,621.0,1
3742,507,515,620.0,1
3743,512,515,622.0,1
3744,519,515,624.0,1
3745,514,514,622.0,1
3746,509,516,621.0,1
3747,499,509,621.0,1
3748,494,504,621.0,1
3749,500,503,624.0,1
3750,505,506,623.0,1
3751,507,513,622.0,1
3752,508,516,621.0,1
3753,506,513,621.0,1
3754,510,512,623.0,1
3755,514,511,624.0,1
3756,509,512,622.0,1
3757,509,515,621.0,1
3758,504,512,621.0,1
3759,503,508,622.0,1
3760,505,503,624.0,1
3761,499,502,622.0,1
3762,499,506,621.0,1
3763,507,514,621.0,1
3764,511,516,622.0,1
3765,518,516,624.0,1
3766,517,514,623.0,1
3767,508,511,622.0,1
3768,511,513,621.0,1
3769,514,514,621.0,1
3770,516,509,623.0,1
3771,516,504,624.0,1
3772,508,501,622.0,1
3773,504,501,621.0,1
3774,512,508,621.0,1
3775,523,511,623.0,1
3776,540,515,624.0,1
3777,544,516,623.0,1
3778,541,516,622.0,1
3779,534,512,621.0,1
3780,536,513,622.0,1
3781,544,515,624.0,1
3782,535,508,624.0,1
3783,519,503,622.0,1
3784,513,503,622.0,1
3785,513,508,621.0,1
3786,515,509,624.0,1
3787,513,508,624.0,1
3788,502,507,622.0,1
3789,494,508,622.0,1
3790,491,509,621.0,1
3791,493,510,623.0,1
3792,498,510,625.0,1
3793,490,506,623.0,1
3794,480,503,622.0,1
3795,478,503,621.0,1
3796,480,503,622.0,1
3797,490,505,624.0,1
3798,499,510,624.0,1
3799,494,511,622.0,1
3800,491,511,621.0,1
3801,492,514,621.0,1
3802,498,515,624.0,1
3803,507,516,624.0,1
3804,510,514,623.0,1
3805,515,507,622.0,1
3806,537,504,621.0,1
3807,584,502,623.0,1
3808,649,502,625.0,1
3809,711,510,623.0,1
3810,748,515,622.0,1
3811,747,516,622.0,1
3812,690,515,622.0,1
3813,623,514,625.0,1
3814,563,516,624.0,1
3815,507,515,622.0,1
3816,476,512,622.0,1
3817,460,507,621.0,1
3818,455,504,624.0,1
3819,453,504,624.0,1
3820,444,503,623.0,1
3821,439,505,622.0,1
3822,443,509,621.0,1
3823,450,513,623.0,1
3824,455,509,625.0,1
3825,456,510,623.0,1
3826,451,510,622.0,1
3827,454,512,622.0,1
3828,452,508,622.0,1
3829,457,504,624.0,1
3830,460,503,624.0,1
3831,453,502,622.0,1
3832,458,506,621.0,1
3833,466,511,621.0,1
3834,478,514,623.0,1
3835,488,516,624.0,1
3836,486,516,622.0,1
3837,482,514,621.0,1
3838,478,510,621.0,1
3839,483,511,622.0,1
3840,489,508,624.0,1
3841,484,504,623.0,1
3842,478,503,622.0,1
3843,478,503,621.0,1
3844,486,507,621.0,1
3845,501,512,624.0,1
3846,509,515,623.0,1
3847,505,516,622.0,1
3848,504,516,621.0,1
3849,505,515,621.0,1
3850,513,516,623.0,1
3851,516,513,624.0,1
3852,508,508,622.0,1
3853,499,504,621.0,1
3854,498,504,620.0,1
3855,506,508,622.0,1
3856,525,515,624.0,1
3857,528,517,622.0,1
3858,523,517,621.0,1
3859,517,513,620.0,1
3860,518,511,621.0,1
3861,531,515,623.0,1
3862,535,516,623.0,1
3863,521,508,621.0,1
3864,512,504,620.0,1
3865,511,503,620.0,1
3866,517,502,622.0,1
3867,529,506,623.0,1
3868,534,512,622.0,1
3869,533,515,620.0,1
3870,533,516,620.0,1
3871,535,516,621.0,1
3872,534,508,623.0,1
3873,531,507,622.0,1
3874,529,511,620.0,1
3875,520,507,620.0,1
3876,517,505,620.0,1
3877,521,504,622.0,1
3878,522,504,622.0,1
3879,514,504,621.0,1
3880,509,506,620.0,1
3881,509,509,619.0,1
3882,510,509,621.0,1
3883,513,509,623.0,1
3884,506,509,621.0,1
3885,497,509,620.0,1
3886,494,510,619.0,1
3887,491,508,620.0,1
3888,493,505,622.0,1
3889,490,504,621.0,1
3890,486,507,620.0,1
3891,490,513,619.0,1
3892,492,514,619.0,1
3893,499,514,622.0,1
3894,505,516,622.0,1
3895,499,516,620.0,1
3896,496,517,619.0,1
3897,493,515,619.0,1
3898,490,508,621.0,1
3899,492,505,622.0,1
3900,487,504,620.0,1
3901,482,504,619.0,1
3902,490,511,619.0,1
3903,498,515,619.0,1
3904,509,515,622.0,1
3905,508,514,621.0,1
3906,502,514,619.0,1
3907,502,516,618.0,1
3908,504,517,618.0,1
3909,511,517,621.0,1
3910,506,510,621.0,1
3911,493,503,619.0,1
3912,489,503,618.0,1
3913,489,504,618.0,1
3914,495,505,620.0,1
3915,507,509,621.0,1
3916,509,513,619.0,1
3917,506,514,618.0,1
3918,503,513,618.0,1
3919,504,513,618.0,1
3920,515,515,621.0,1
3921,516,516,620.0,1
3922,504,511,618.0,1
3923,495,505,618.0,1
3924,493,504,617.0,1
3925,508,511,620.0,1
3926,517,515,620.0,1
3927,508,512,618.0,1
3928,507,515,617.0,1
3929,509,517,617.0,1
3930,512,515,619.0,1
3931,513,510,620.0,1
3932,511,511,618.0,1
3933,499,507,617.0,1
3934,493,504,617.0,1
3935,493,503,618.0,1
3936,501,503,620.0,1
3937,507,507,619.0,1
3938,509,513,617.0,1
3939,510,515,617.0,1
3940,510,516,616.0,1
3941,516,516,619.0,1
3942,519,515,619.0,1
3943,511,513,617.0,1
3944,505,511,616.0,1
3945,500,509,616.0,1
3946,499,505,617.0,1
3947,505,504,619.0,1
3948,500,503,617.0,1
3949,499,506,616.0,1
3950,505,512,616.0,1
3951,510,515,616.0,1
3952,518,515,619.0,1
3953,521,516,618.0,1
3954,515,516,616.0,1
3955,514,517,615.0,1
3956,511,513,615.0,1
3957,510,506,617.0,1
3958,513,503,618.0,1
3959,508,502,616.0,1
3960,507,503,615.0,1
3961,510,505,615.0,1
3962,523,513,616.0,1
3963,537,515,618.0,1
3964,541,514,616.0,1
3965,540,513,615.0,1
3966,541,515,615.0,1
3967,542,516,615.0,1
3968,538,509,617.0,1
3969,532,504,617.0,1
3970,521,502,615.0,1
3971,515,503,614.0,1
3972,515,506,614.0,1
3973,518,509,616.0,1
3974,522,512,617.0,1
3975,511,512,615.0,1
3976,503,513,614.0,1
3977,499,513,614.0,1
3978,497,512,615.0,1
3979,504,513,617.0,1
3980,496,509,615.0,1
3981,484,504,614.0,1
3982,480,504,614.0,1
3983,484,507,614.0,1
3984,494,509,616.0,1
3985,501,512,616.0,1
3986,495,512,614.0,1
3987,497,515,613.0,1
3988,495,515,613.0,1
3989,497,515,615.0,1
3990,503,515,616.0,1
3991,503,515,614.0,1
3992,504,509,613.0,1
3993,515,505,613.0,1
3994,547,504,614.0,1
3995,613,511,616.0,1
3996,678,515,614.0,1
3997,726,516,613.0,1
3998,754,517,612.0,1
3999,735,515,613.0,1
4000,678,516,615.0,1
4001,609,516,615.0,1
4002,542,515,613.0,1
4003,488,508,612.0,1
4004,465,504,612.0,1
4005,458,503,614.0,1
4006,456,503,615.0,1
4007,448,504,613.0,1
4008,443,506,612.0,1
4009,441,507,612.0,1
4010,449,513,613.0,1
4011,458,514,615.0,1
4012,458,514,613.0,1
4013,453,512,612.0,1
4014,454,515,611.0,1
4015,451,511,611.0,1
4016,454,505,614.0,1
4017,457,504,614.0,1
4018,458,508,612.0,1
4019,465,515,611.0,1
4020,463,511,611.0,1
4021,472,512,613.0,1
4022,486,516,614.0,1
4023,485,516,612.0,1
4024,481,514,611.0,1
4025,480,515,610.0,1
4026,484,514,611.0,1
4027,486,508,614.0,1
4028,482,504,612.0,1
4029,476,502,611.0,1
4030,480,507,610.0,1
4031,487,511,610.0,1
4032,498,513,613.0,1
4033,507,515,613.0,1
4034,505,516,611.0,1
4035,504,516,610.0,1
4036,503,516,610.0,1
4037,502,510,612.0,1
4038,506,508,613.0,1
4039,501,505,611.0,1
4040,498,505,610.0,1
4041,497,505,609.0,1
4042,504,507,610.0,1
4043,520,514,613.0,1
4044,522,514,611.0,1
4045,516,511,610.0,1
4046,516,513,609.0,1
4047,520,515,609.0,1
4048,529,515,612.0,1
4049,530,512,612.0,1
4050,517,505,610.0,1
4051,512,503,609.0,1
4052,511,503,609.0,1
4053,525,509,611.0,1
4054,540,515,612.0,1
4055,539,516,610.0,1
4056,534,516,609.0,1
4057,531,515,609.0,1
4058,529,512,610.0,1
4059,540,515,612.0,1
4060,542,515,610.0,1
4061,536,514,609.0,1
4062,526,509,609.0,1
4063,519,504,608.0,1
4064,523,503,611.0,1
4065,535,511,611.0,1
4066,532,514,609.0,1
4067,526,514,608.0,1
4068,523,516,608.0,1
4069,524,516,610.0,1
4070,526,514,611.0,1
4071,520,514,609.0,1
4072,507,511,608.0,1
4073,493,505,608.0,1
4074,489,503,609.0,1
4075,493,502,611.0,1
4076,491,502,610.0,1
4077,489,505,609.0,1
4078,492,512,608.0,1
4079,491,512,608.0,1
4080,501,515,610.0,1
4081,507,515,611.0,1
4082,501,515,609.0,1
4083,491,511,608.0,1
4084,491,513,608.0,1
4085,492,510,609.0,1
4086,493,504,611.0,1
4087,489,502,609.0,1
4088,494,510,608.0,1
4089,499,515,608.0,1
4090,502,516,608.0,1
4091,507,514,611.0,1
4092,508,513,610.0,1
4093,504,514,608.0,1
4094,503,515,608.0,1
4095,502,515,608.0,1
4096,510,516,610.0,1
4097,506,509,610.0,1
4098,494,503,608.0,1
4099,490,502,608.0,1
4100,491,505,607.0,1
4101,494,505,609.0,1
4102,500,505,611.0,1
4103,498,504,609.0,1
4104,496,507,608.0,1
4105,496,509,607.0,1
4106,500,510,608.0,1
4107,511,512,610.0,1
4108,510,509,610.0,1
4109,498,504,608.0,1
4110,493,503,607.0,1
4111,492,502,607.0,1
4112,502,506,610.0,1
4113,516,513,610.0,1
4114,514,516,608.0,1
4115,511,517,607.0,1
4116,508,515,607.0,1
4117,509,513,609.0,1
4118,519,515,610.0,1
4119,518,516,609.0,1
4120,504,509,607.0,1
4121,495,505,607.0,1
4122,492,503,608.0,1
4123,504,506,610.0,1
4124,512,511,609.0,1
4125,507,511,608.0,1
4126,504,512,607.0,1
4127,508,516,607.0,1
4128,515,516,609.0,1
4129,520,516,610.0,1
4130,516,515,608.0,1
4131,513,516,607.0,1
4132,503,511,607.0,1
4133,502,507,608.0,1
4134,506,505,610.0,1
4135,508,507,609.0,1
4136,510,512,607.0,1
4137,510,515,607.0,1
4138,511,514,608.0,1
4139,521,516,610.0,1
4140,525,516,609.0,1
4141,521,516,608.0,1
4142,517,513,607.0,1
4143,511,509,607.0,1
4144,512,504,609.0,1
4145,517,502,610.0,1
4146,513,502,608.0,1
4147,514,505,607.0,1
4148,526,511,607.0,1
4149,538,512,608.0,1
4150,547,511,610.0,1
4151,544,509,609.0,1
4152,537,510,608.0,1
4153,532,511,607.0,1
4154,528,510,607.0,1
4155,528,506,610.0,1
4156,524,504,609.0,1
4157,512,502,608.0,1
4158,505,505,607.0,1
4159,505,510,607.0,1
4160,510,513,609.0,1
4161,514,514,610.0,1
4162,505,513,608.0,1
4163,497,512,607.0,1
4164,493,512,607.0,1
4165,495,512,608.0,1
4166,502,512,610.0,1
4167,496,508,609.0,1
4168,487,505,607.0,1
4169,483,504,607.0,1
4170,487,507,607.0,1
4171,499,512,610.0,1
4172,504,513,610.0,1
4173,498,514,608.0,1
4174,493,515,607.0,1
4175,493,514,607.0,1
4176,506,513,609.0,1
4177,528,512,610.0,1
4178,545,507,608.0,1
4179,577,504,607.0,1
4180,627,504,607.0,1
4181,685,503,608.0,1
4182,742,510,610.0,1
4183,759,515,609.0,1
4184,703,515,608.0,1
4185,626,516,607.0,1
4186,562,517,607.0,1
4187,517,516,610.0,1
4188,486,513,610.0,1
4189,471,511,608.0,1
4190,458,508,607.0,1
4191,447,504,607.0,1
4192,447,503,609.0,1
4193,460,511,610.0,1
4194,460,515,608.0,1
4195,455,514,607.0,1
4196,453,513,607.0,1
4197,452,510,608.0,1
4198,463,512,610.0,1
4199,467,514,609.0,1
4200,466,514,607.0,1
4201,461,511,607.0,1
4202,458,507,607.0,1
4203,463,503,610.0,1
4204,466,502,609.0,1
4205,468,507,608.0,1
4206,475,513,607.0,1
4207,479,516,607.0,1
4208,486,516,609.0,1
4209,494,515,610.0,1
4210,489,511,608.0,1
4211,488,512,607.0,1
4212,488,513,607.0,1
4213,486,508,608.0,1
4214,489,504,610.0,1
4215,489,503,609.0,1
4216,484,502,607.0,1
4217,492,510,607.0,1
4218,500,515,607.0,1
4219,512,516,609.0,1
4220,517,516,609.0,1
4221,513,516,608.0,1
4222,507,513,607.0,1
4223,510,515,606.0,1
4224,516,515,609.0,1
4225,515,508,610.0,1
4226,506,503,608.0,1
4227,501,502,607.0,1
4228,506,508,607.0,1
4229,511,509,607.0,1
4230,521,509,609.0,1
4231,522,509,608.0,1
4232,522,512,607.0,1
4233,523,515,606.0,1
4234,524,515,607.0,1
4235,531,513,609.0,1
4236,537,514,609.0,1
4237,527,509,607.0,1
4238,517,505,606.0,1
4239,513,503,606.0,1
4240,523,506,608.0,1
4241,540,514,609.0,1
4242,542,516,607.0,1
4243,531,512,606.0,1
4244,521,507,606.0,1
4245,520,505,607.0,1
4246,528,504,609.0,1
4247,527,504,608.0,1
4248,519,503,606.0,1
4249,513,503,606.0,1
4250,511,503,606.0,1
4251,514,503,608.0,1
4252,525,511,608.0,1
4253,522,515,606.0,1
4254,516,517,606.0,1
4255,511,517,605.0,1
4256,510,516,607.0,1
4257,515,517,608.0,1
4258,508,515,607.0,1
4259,498,513,606.0,1
4260,489,510,605.0,1
4261,485,507,606.0,1
4262,488,505,608.0,1
4263,491,508,607.0,1
4264,491,512,605.0,1
4265,489,513,605.0,1
4266,492,515,605.0,1
4267,499,515,607.0,1
4268,503,515,607.0,1
4269,497,513,605.0,1
4270,496,516,605.0,1
4271,495,516,604.0,1
4272,490,509,606.0,1
4273,491,505,607.0,1
4274,488,503,606.0,1
4275,489,506,604.0,1
4276,494,512,604.0,1
4277,498,515,605.0,1
4278,509,517,607.0,1
4279,511,517,606.0,1
4280,506,516,604.0,1
4281,502,516,604.0,1
4282,502,517,603.0,1
4283,499,509,606.0,1
4284,499,504,606.0,1
4285,493,503,604.0,1
4286,489,503,603.0,1
4287,496,511,603.0,1
4288,505,515,604.0,1
4289,510,512,606.0,1
4290,505,510,604.0,1
4291,500,510,603.0,1
4292,503,515,602.0,1
4293,505,516,603.0,1
4294,509,512,605.0,1
4295,506,508,604.0,1
4296,495,503,603.0,1
4297,491,503,602.0,1
4298,494,507,602.0,1
4299,508,513,604.0,1
4300,518,515,604.0,1
4301,514,515,602.0,1
4302,508,514,601.0,1
4303,502,513,601.0,1
4304,506,514,602.0,1
4305,515,515,604.0,1
4306,514,514,602.0,1
4307,501,509,601.0,1
4308,492,504,600.0,1
4309,489,502,601.0,1
4310,507,509,603.0,1
4311,516,514,602.0,1
4312,514,516,601.0,1
4313,509,516,600.0,1
4314,506,516,600.0,1
4315,511,514,602.0,1
4316,520,515,602.0,1
4317,520,516,600.0,1
4318,509,509,599.0,1
4319,501,504,599.0,1
4320,501,502,600.0,1
4321,510,503,602.0,1
4322,517,507,600.0,1
4323,517,509,599.0,1
4324,517,509,598.0,1
4325,527,513,599.0,1
4326,542,515,601.0,1
4327,547,514,600.0,1
4328,539,511,598.0,1
4329,536,515,598.0,1
4330,526,513,597.0,1
4331,519,506,599.0,1
4332,520,503,600.0,1
4333,523,510,598.0,1
4334,518,515,597.0,1
4335,509,515,597.0,1
4336,506,516,598.0,1
4337,511,516,600.0,1
4338,509,516,598.0,1
4339,502,515,597.0,1
4340,494,515,596.0,1
4341,490,514,596.0,1
4342,491,508,598.0,1
4343,488,503,598.0,1
4344,483,502,596.0,1
4345,488,509,595.0,1
4346,492,514,595.0,1
4347,498,515,597.0,1
4348,504,515,598.0,1
4349,496,512,596.0,1
4350,494,514,595.0,1
4351,494,514,594.0,1
4352,504,513,595.0,1
4353,522,507,597.0,1
4354,545,503,596.0,1
4355,578,504,594.0,1
4356,620,504,593.0,1
4357,672,506,594.0,1
4358,722,508,596.0,1
4359,741,511,596.0,1
4360,694,512,594.0,1
4361,614,512,593.0,1
4362,544,512,592.0,1
4363,501,513,594.0,1
4364,477,513,595.0,1
4365,463,509,593.0,1
4366,454,505,592.0,1
4367,443,503,592.0,1
4368,448,509,592.0,1
4369,461,515,594.0,1
4370,463,515,593.0,1
4371,461,516,592.0,1
4372,456,517,591.0,1
4373,454,516,591.0,1
4374,458,512,593.0,1
4375,465,512,593.0,1
4376,466,512,591.0,1
4377,459,508,590.0,1
4378,449,503,589.0,1
4379,453,502,591.0,1
4380,473,510,592.0,1
4381,482,515,590.0,1
4382,480,515,589.0,1
4383,467,508,588.0,1
4384,465,505,589.0,1
4385,475,505,591.0,1
4386,485,508,590.0,1
4387,487,510,588.0,1
4388,479,507,587.0,1
4389,473,505,587.0,1
4390,479,502,589.0,1
4391,487,503,589.0,1
4392,493,506,587.0,1
4393,497,513,586.0,1
4394,495,515,586.0,1
4395,498,514,587.0,1
4396,502,509,589.0,1
4397,506,511,587.0,1
4398,509,513,585.0,1
4399,503,514,585.0,1
4400,496,509,585.0,1
4401,500,504,587.0,1
4402,504,502,586.0,1
4403,509,507,584.0,1
4404,510,512,584.0,1
4405,506,512,583.0,1
4406,517,514,586.0,1
4407,527,515,586.0,1
4408,525,512,584.0,1
4409,523,514,583.0,1
4410,519,515,582.0,1
4411,523,515,584.0,1
4412,526,509,585.0,1
4413,523,504,583.0,1
4414,519,504,582.0,1
4415,520,511,581.0,1
4416,521,512,582.0,1
4417,527,509,584.0,1
4418,531,508,583.0,1
4419,529,508,581.0,1
4420,520,508,580.0,1
4421,511,506,580.0,1
4422,513,503,582.0,1
4423,521,503,582.0,1
4424,522,504,580.0,1
4425,518,507,579.0,1
4426,506,506,579.0,1
4427,504,505,580.0,1
4428,510,504,582.0,1
4429,509,504,580.0,1
4430,503,504,578.0,1
4431,491,505,578.0,1
4432,485,504,578.0,1
4433,492,505,580.0,1
4434,495,505,579.0,1
4435,494,505,578.0,1
4436,485,506,577.0,1
4437,476,505,577.0,1
4438,491,512,579.0,1
4439,504,517,579.0,1
4440,506,518,577.0,1
4441,500,516,576.0,1
4442,490,516,576.0,1
4443,492,517,577.0,1
4444,503,517,579.0,1
4445,507,517,577.0,1
4446,504,515,575.0,1
4447,487,510,575.0,1
4448,477,505,575.0,1
4449,485,504,577.0,1
4450,493,506,577.0,1
4451,502,512,575.0,1
4452,497,514,574.0,1
4453,494,518,574.0,1
4454,496,514,576.0,1
4455,503,511,576.0,1
4456,510,513,574.0,1
4457,509,515,574.0,1
4458,493,511,573.0,1
4459,485,505,574.0,1
4460,493,503,576.0,1
4461,497,502,574.0,1
4462,504,507,573.0,1
4463,502,514,572.0,1
4464,500,516,573.0,1
4465,509,516,575.0,1
4466,516,516,574.0,1
4467,518,516,572.0,1
4468,511,517,572.0,1
4469,502,517,572.0,1
4470,496,509,574.0,1
4471,499,503,574.0,1
4472,501,502,572.0,1
4473,508,511,571.0,1
4474,503,516,571.0,1
4475,501,515,572.0,1
4476,510,515,574.0,1
4477,515,515,572.0,1
4478,519,517,571.0,1
4479,507,517,570.0,1
4480,497,514,570.0,1
4481,506,514,573.0,1
4482,509,510,572.0,1
4483,508,506,570.0,1
4484,499,504,570.0,1
4485,493,507,569.0,1
4486,505,512,571.0,1
4487,519,514,572.0,1
4488,525,515,570.0,1
4489,527,517,569.0,1
4490,516,517,569.0,1
4491,516,516,570.0,1
4492,525,513,572.0,1
4493,527,506,570.0,1
4494,531,504,569.0,1
4495,521,503,568.0,1
4496,514,503,568.0,1
4497,530,510,571.0,1
4498,544,515,570.0,1
4499,547,517,568.0,1
4500,533,516,568.0,1
4501,518,516,567.0,1
4502,517,516,569.0,1
4503,521,516,570.0,1
4504,521,516,568.0,1
4505,507,510,567.0,1
4506,484,504,567.0,1
4507,476,503,568.0,1
4508,493,510,570.0,1
4509,503,515,568.0,1
4510,507,516,567.0,1
4511,492,514,566.0,1
4512,480,511,567.0,1
4513,485,510,569.0,1
4514,489,506,569.0,1
4515,497,508,567.0,1
4516,494,511,566.0,1
4517,478,508,566.0,1
4518,474,504,568.0,1
4519,481,503,569.0,1
4520,494,505,567.0,1
4521,512,511,566.0,1
4522,519,512,566.0,1
4523,545,513,567.0,1
4524,598,513,568.0,1
4525,659,513,567.0,1
4526,699,510,566.0,1
4527,707,505,565.0,1
4528,697,503,566.0,1
4529,652,503,568.0,1
4530,593,504,568.0,1
4531,539,504,566.0,1
4532,492,510,565.0,1
4533,462,514,565.0,1
4534,462,515,567.0,1
4535,467,511,568.0,1
4536,473,513,566.0,1
4537,472,515,565.0,1
4538,454,514,565.0,1
4539,445,511,566.0,1
4540,448,507,567.0,1
4541,453,504,566.0,1
4542,462,506,565.0,1
4543,454,508,564.0,1
4544,450,513,564.0,1
4545,461,514,567.0,1
4546,474,514,567.0,1
4547,482,513,565.0,1
4548,478,513,564.0,1
4549,467,515,564.0,1
4550,468,513,566.0,1
4551,478,511,567.0,1
4552,481,507,565.0,1
4553,483,505,564.0,1
4554,468,504,564.0,1
4555,469,507,564.0,1
4556,487,512,566.0,1
4557,502,516,565.0,1
4558,511,517,564.0,1
4559,498,515,563.0,1
4560,484,511,563.0,1
4561,486,506,566.0,1
4562,503,510,566.0,1
4563,510,509,564.0,1
4564,501,506,563.0,1
4565,485,504,563.0,1
4566,485,503,565.0,1
4567,501,505,566.0,1
4568,517,512,564.0,1
4569,524,514,563.0,1
4570,513,517,563.0,1
4571,508,517,564.0,1
4572,519,516,565.0,1
4573,528,515,564.0,1
4574,538,517,563.0,1
4575,518,510,562.0,1
4576,502,506,562.0,1
4577,508,506,565.0,1
4578,521,507,565.0,1
4579,533,509,563.0,1
4580,533,515,562.0,1
4581,517,514,562.0,1
4582,517,513,563.0,1
4583,533,514,565.0,1
4584,543,516,563.0,1
4585,545,516,562.0,1
4586,529,517,562.0,1
4587,514,511,562.0,1
4588,517,505,564.0,1
4589,525,503,564.0,1
4590,540,511,562.0,1
4591,531,517,562.0,1
4592,519,517,561.0,1
4593,523,517,564.0,1
4594,532,514,564.0,1
4595,539,516,562.0,1
4596,530,517,561.0,1
4597,509,515,561.0,1
4598,496,508,563.0,1
4599,499,502,564.0,1
4600,504,501,562.0,1
4601,506,503,561.0,1
4602,491,507,561.0,1
4603,488,514,562.0,1
4604,499,515,564.0,1
4605,509,515,563.0,1
4606,516,515,561.0,1
4607,503,516,561.0,1
4608,488,516,561.0,1
4609,489,513,563.0,1
4610,492,506,563.0,1
4611,497,503,561.0,1
4612,494,504,561.0,1
4613,482,508,561.0,1
4614,487,513,562.0,1
4615,498,512,564.0,1
4616,512,516,562.0,1
4617,519,517,561.0,1
4618,503,517,561.0,1
4619,492,514,561.0,1
4620,502,515,563.0,1
4621,515,515,563.0,1
4622,517,510,561.0,1
4623,499,505,561.0,1
4624,481,503,561.0,1
4625,488,506,563.0,1
4626,505,510,563.0,1
4627,519,513,561.0,1
4628,521,516,561.0,1
4629,504,516,560.0,1
4630,500,516,562.0,1
4631,511,516,563.0,1
4632,519,513,562.0,1
4633,519,508,561.0,1
4634,496,504,560.0,1
4635,484,503,561.0,1
4636,493,504,563.0,1
4637,509,508,562.0,1
4638,526,513,561.0,1
4639,517,514,560.0,1
4640,496,510,560.0,1
4641,500,512,562.0,1
4642,511,510,563.0,1
4643,523,513,561.0,1
4644,522,513,560.0,1
4645,495,506,560.0,1
4646,486,503,562.0,1
4647,496,503,563.0,1
4648,514,509,562.0,1
4649,528,514,561.0,1
4650,513,516,560.0,1
4651,501,516,561.0,1
4652,507,515,563.0,1
4653,513,510,562.0,1
4654,526,512,561.0,1
4655,520,515,560.0,1
4656,504,515,560.0,1
4657,501,509,562.0,1
4658,509,504,563.0,1
4659,519,502,561.0,1
4660,530,511,560.0,1
4661,516,514,560.0,1
4662,514,515,561.0,1
4663,528,515,563.0,1
4664,543,516,562.0,1
4665,554,517,560.0,1
4666,532,510,560.0,1
4667,518,507,560.0,1
4668,525,508,563.0,1
4669,536,508,562.0,1
4670,544,508,561.0,1
4671,532,509,560.0,1
4672,511,507,560.0,1
4673,507,506,562.0,1
4674,517,509,563.0,1
4675,520,508,561.0,1
4676,519,510,560.0,1
4677,497,511,560.0,1
4678,488,510,561.0,1
4679,493,508,563.0,1
4680,496,504,562.0,1
4681,504,503,560.0,1
4682,488,503,560.0,1
4683,482,509,560.0,1
4684,491,512,562.0,1
4685,504,514,562.0,1
4686,518,515,561.0,1
4687,510,516,560.0,1
4688,488,512,560.0,1
4689,487,512,562.0,1
4690,496,513,563.0,1
4691,507,512,561.0,1
4692,516,511,560.0,1
4693,508,505,560.0,1
4694,524,503,561.0,1
4695,576,505,563.0,1
4696,642,509,562.0,1
4697,690,509,560.0,1
4698,713,514,560.0,1
4699,721,515,560.0,1
4700,692,514,562.0,1
4701,635,513,562.0,1
4702,578,515,561.0,1
4703,511,510,560.0,1
4704,459,504,560.0,1
4705,450,502,562.0,1
4706,458,502,563.0,1
4707,467,506,561.0,1
4708,474,513,560.0,1
4709,456,513,560.0,1
4710,449,512,561.0,1
4711,461,514,563.0,1
4712,471,515,562.0,1
4713,480,515,561.0,1
4714,469,515,560.0,1
4715,450,508,560.0,1
4716,452,503,563.0,1
4717,463,502,563.0,1
4718,483,509,561.0,1
4719,487,515,560.0,1
4720,475,516,560.0,1
4721,474,514,562.0,1
4722,483,511,563.0,1
4723,496,513,561.0,1
4724,502,514,560.0,1
4725,489,516,560.0,1
4726,478,511,561.0,1
4727,483,506,563.0,1
4728,489,503,562.0,1
4729,500,504,561.0,1
4730,495,508,560.0,1
4731,488,512,561.0,1
4732,498,513,563.0,1
4733,510,513,563.0,1
4734,518,512,561.0,1
4735,513,511,561.0,1
4736,501,513,560.0,1
4737,502,513,562.0,1
4738,508,508,564.0,1
4739,511,503,562.0,1
4740,516,504,561.0,1
4741,500,503,561.0,1
4742,499,506,562.0,1
4743,517,512,564.0,1
4744,531,515,563.0,1
4745,540,516,561.0,1
4746,530,517,561.0,1
4747,516,515,561.0,1
4748,524,516,563.0,1
4749,536,516,564.0,1
4750,535,509,562.0,1
4751,526,505,561.0,1
4752,510,503,561.0,1
4753,519,510,563.0,1
4754,537,515,564.0,1
4755,545,515,563.0,1
4756,548,516,562.0,1
4757,533,517,561.0,1
4758,527,516,562.0,1
4759,536,516,565.0,1
4760,541,511,564.0,1
4761,547,514,562.0,1
4762,529,510,562.0,1
4763,510,504,562.0,1
4764,512,502,564.0,1
4765,528,507,565.0,1
4766,535,509,563.0,1
4767,532,514,562.0,1
4768,515,514,562.0,1
4769,509,512,564.0,1
4770,519,514,565.0,1
4771,525,514,564.0,1
4772,522,513,563.0,1
4773,497,508,562.0,1
4774,483,503,563.0,1
4775,488,502,566.0,1
4776,494,502,565.0,1
4777,508,509,563.0,1
4778,502,513,563.0,1
4779,492,515,563.0,1
4780,496,515,565.0,1
4781,505,513,566.0,1
4782,513,516,564.0,1
4783,511,517,563.0,1
4784,496,516,563.0,1
4785,486,509,564.0,1
4786,489,503,566.0,1
4787,495,502,564.0,1
4788,508,510,563.0,1
4789,498,512,563.0,1
4790,490,510,564.0,1
4791,502,513,566.0,1
4792,511,513,565.0,1
4793,516,513,564.0,1
4794,507,513,563.0,1
4795,494,511,563.0,1
4796,493,507,565.0,1
4797,499,504,566.0,1
4798,503,503,564.0,1
4799,502,504,563.0,1
4800,494,508,563.0,1
4801,501,514,565.0,1
4802,513,515,566.0,1
4803,522,517,565.0,1
4804,525,517,564.0,1
4805,512,517,563.0,1
4806,500,512,564.0,1
4807,502,506,566.0,1
4808,505,502,566.0,1
4809,509,503,564.0,1
4810,501,504,564.0,1
4811,490,503,564.0,1
4812,497,506,566.0,1
4813,512,509,566.0,1
4814,519,512,565.0,1
4815,517,512,564.0,1
4816,507,514,564.0,1
4817,506,515,565.0,1
4818,516,515,567.0,1
4819,516,511,566.0,1
4820,512,506,565.0,1
4821,498,503,564.0,1
4822,489,502,565.0,1
4823,503,507,567.0,1
4824,517,512,567.0,1
4825,524,514,565.0,1
4826,515,513,564.0,1
4827,502,511,565.0,1
4828,502,509,567.0,1
4829,515,511,568.0,1
4830,521,512,566.0,1
4831,516,509,565.0,1
4832,501,506,565.0,1
4833,498,504,566.0,1
4834,508,502,568.0,1
4835,520,505,567.0,1
4836,528,510,565.0,1
4837,522,513,565.0,1
4838,518,513,566.0,1
4839,532,513,568.0,1
4840,542,511,568.0,1
4841,552,514,566.0,1
4842,546,516,566.0,1
4843,525,510,565.0,1
4844,520,504,568.0,1
4845,526,502,569.0,1
4846,526,502,567.0,1
4847,531,510,566.0,1
4848,516,513,566.0,1
4849,510,514,567.0,1
4850,516,516,569.0,1
4851,518,516,568.0,1
4852,516,516,567.0,1
4853,497,512,566.0,1
4854,490,514,567.0,1
4855,491,510,569.0,1
4856,490,504,569.0,1
4857,495,506,568.0,1
4858,493,508,567.0,1
4859,485,510,567.0,1
4860,489,511,569.0,1
4861,497,510,570.0,1
4862,504,513,568.0,1
4863,504,514,567.0,1
4864,492,515,567.0,1
4865,486,513,568.0,1
4866,493,509,570.0,1
4867,502,503,569.0,1
4868,521,502,568.0,1
4869,538,503,567.0,1
4870,582,510,568.0,1
4871,645,512,570.0,1
4872,710,512,570.0,1
4873,747,515,569.0,1
4874,733,515,568.0,1
4875,671,516,568.0,1
4876,604,516,570.0,1
4877,554,517,571.0,1
4878,502,510,569.0,1
4879,471,505,568.0,1
4880,451,503,568.0,1
4881,443,502,569.0,1
4882,451,505,571.0,1
4883,460,510,570.0,1
4884,463,513,569.0,1
4885,454,514,568.0,1
4886,446,512,569.0,1
4887,452,511,571.0,1
4888,461,511,571.0,1
4889,464,510,569.0,1
4890,457,507,569.0,1
4891,445,504,569.0,1
4892,450,505,571.0,1
4893,462,505,572.0,1
4894,469,507,570.0,1
4895,472,508,569.0,1
4896,469,512,569.0,1
4897,470,514,570.0,1
4898,480,514,572.0,1
4899,484,510,571.0,1
4900,492,513,570.0,1
4901,483,511,569.0,1
4902,470,505,570.0,1
4903,475,502,572.0,1
4904,483,502,572.0,1
4905,496,510,571.0,1
4906,500,515,570.0,1
4907,492,514,570.0,1
4908,493,512,572.0,1
4909,507,514,573.0,1
4910,512,515,571.0,1
4911,513,515,570.0,1
4912,505,515,570.0,1
4913,494,508,571.0,1
4914,499,503,573.0,1
4915,503,502,572.0,1
4916,506,503,571.0,1
4917,509,510,571.0,1
4918,509,515,571.0,1
4919,517,516,573.0,1
4920,524,513,573.0,1
4921,528,515,572.0,1
4922,526,516,571.0,1
4923,518,516,571.0,1
4924,516,512,573.0,1
4925,519,505,574.0,1
4926,519,502,573.0,1
4927,518,502,572.0,1
4928,513,505,571.0,1
4929,515,508,572.0,1
4930,531,512,574.0,1
4931,539,514,573.0,1
4932,539,514,572.0,1
4933,527,511,572.0,1
4934,524,514,572.0,1
4935,531,515,574.0,1
4936,531,507,575.0,1
4937,526,503,573.0,1
4938,520,503,572.0,1
4939,508,503,572.0,1
4940,513,506,574.0,1
4941,528,512,575.0,1
4942,531,515,574.0,1
4943,528,516,573.0,1
4944,515,517,572.0,1
4945,505,514,573.0,1
4946,512,514,575.0,1
4947,516,515,575.0,1
4948,505,509,573.0,1
4949,491,505,573.0,1
4950,479,503,573.0,1
4951,481,502,575.0,1
4952,489,503,576.0,1
4953,493,507,574.0,1
4954,494,510,573.0,1
4955,487,512,573.0,1
4956,488,512,575.0,1
4957,497,512,576.0,1
4958,499,511,575.0,1
4959,499,512,574.0,1
4960,487,510,573.0,1
4961,478,505,574.0,1
4962,483,503,576.0,1
4963,494,507,576.0,1
4964,503,513,574.0,1
4965,498,514,574.0,1
4966,491,514,574.0,1
4967,489,508,576.0,1
4968,495,505,577.0,1
4969,497,505,575.0,1
4970,500,510,574.0,1
4971,490,508,574.0,1
4972,486,504,575.0,1
4973,494,502,577.0,1
4974,497,502,576.0,1
4975,502,507,575.0,1
4976,501,512,574.0,1
4977,495,510,575.0,1
4978,502,508,577.0,1
4979,515,514,577.0,1
4980,518,516,575.0,1
4981,514,517,575.0,1
4982,506,516,575.0,1
4983,502,510,577.0,1
4984,506,507,578.0,1
4985,504,506,576.0,1
4986,510,512,575.0,1
4987,501,511,575.0,1
4988,500,511,576.0,1
4989,515,515,578.0,1
4990,518,515,577.0,1
4991,514,513,576.0,1
4992,508,513,575.0,1
4993,503,513,576.0,1
4994,510,513,578.0,1
4995,508,508,578.0,1
4996,503,504,576.0,1
4997,496,503,576.0,1
4998,495,509,576.0,1
4999,506,514,578.0,1
5000,516,515,579.0,1
5001,517,516,577.0,1
5002,512,514,576.0,1
5003,503,513,576.0,1
5004,502,512,577.0,1
5005,512,512,579.0,1
5006,510,509,578.0,1
5007,504,505,577.0,1
5008,494,504,576.0,1
5009,489,503,577.0,1
5010,501,506,579.0,1
5011,515,513,579.0,1
5012,519,515,577.0,1
5013,516,517,577.0,1
5014,510,517,576.0,1
5015,513,515,579.0,1
5016,525,516,580.0,1
5017,525,514,578.0,1
5018,517,508,577.0,1
5019,504,504,577.0,1
5020,502,502,578.0,1
5021,517,506,580.0,1
5022,531,512,579.0,1
5023,538,514,578.0,1
5024,536,514,577.0,1
5025,534,516,577.0,1
5026,541,516,580.0,1
5027,546,516,580.0,1
5028,543,516,578.0,1
5029,535,517,578.0,1
5030,517,509,577.0,1
5031,509,503,579.0,1
5032,509,502,581.0,1
5033,513,509,579.0,1
5034,512,514,578.0,1
5035,501,515,578.0,1
5036,496,514,579.0,1
5037,502,515,581.0,1
5038,504,515,580.0,1
5039,503,515,578.0,1
5040,493,513,578.0,1
5041,479,505,578.0,1
5042,480,502,581.0,1
5043,484,501,581.0,1
5044,484,501,579.0,1
5045,490,509,578.0,1
5046,488,513,578.0,1
5047,491,513,580.0,1
5048,498,515,581.0,1
5049,492,510,580.0,1
5050,500,513,579.0,1
5051,507,513,578.0,1
5052,524,510,579.0,1
5053,559,507,581.0,1
5054,606,503,580.0,1
5055,654,502,579.0,1
5056,698,507,578.0,1
5057,731,513,579.0,1
5058,728,515,581.0,1
5059,673,516,581.0,1
5060,600,515,580.0,1
5061,533,515,579.0,1
5062,480,513,579.0,1
5063,469,514,581.0,1
5064,472,514,582.0,1
5065,463,509,580.0,1
5066,451,505,579.0,1
5067,438,503,579.0,1
5068,443,510,580.0,1
5069,457,515,582.0,1
5070,461,515,581.0,1
5071,462,515,579.0,1
5072,458,516,579.0,1
5073,455,516,579.0,1
5074,459,512,581.0,1
5075,469,513,582.0,1
5076,463,506,580.0,1
5077,457,504,579.0,1
5078,453,504,579.0,1
5079,455,502,581.0,1
5080,469,504,582.0,1
5081,475,507,580.0,1
5082,481,512,579.0,1
5083,475,511,579.0,1
5084,478,513,580.0,1
5085,489,513,582.0,1
5086,493,513,581.0,1
5087,491,510,580.0,1
5088,484,508,579.0,1
5089,476,504,579.0,1
5090,481,502,582.0,1
5091,490,503,582.0,1
5092,492,504,580.0,1
5093,491,505,579.0,1
5094,487,505,579.0,1
5095,492,506,581.0,1
5096,511,513,582.0,1
5097,516,515,581.0,1
5098,515,514,580.0,1
5099,510,515,579.0,1
5100,501,508,580.0,1
5101,505,503,582.0,1
5102,509,502,582.0,1
5103,517,509,580.0,1
5104,513,511,580.0,1
5105,510,510,579.0,1
5106,520,513,582.0,1
5107,531,515,583.0,1
5108,529,513,581.0,1
5109,527,514,580.0,1
5110,517,511,579.0,1
5111,513,505,581.0,1
5112,524,505,583.0,1
5113,523,504,581.0,1
5114,522,506,580.0,1
5115,518,507,580.0,1
5116,519,509,580.0,1
5117,529,510,583.0,1
5118,538,513,582.0,1
5119,538,515,581.0,1
5120,533,516,580.0,1
5121,525,513,580.0,1
5122,530,513,582.0,1
5123,531,508,583.0,1
5124,522,503,581.0,1
5125,515,504,580.0,1
5126,515,512,580.0,1
5127,519,516,582.0,1
5128,526,516,583.0,1
5129,524,516,582.0,1
5130,518,517,581.0,1
5131,508,517,580.0,1
5132,503,517,581.0,1
5133,507,515,583.0,1
5134,508,514,582.0,1
5135,496,508,581.0,1
5136,484,505,580.0,1
5137,476,503,580.0,1
5138,489,509,583.0,1
5139,502,514,583.0,1
5140,503,515,581.0,1
5141,498,515,580.0,1
5142,489,512,580.0,1
5143,488,510,582.0,1
5144,499,511,583.0,1
5145,499,510,582.0,1
5146,492,506,581.0,1
5147,482,503,580.0,1
5148,479,502,581.0,1
5149,487,501,583.0,1
5150,498,506,583.0,1
5151,506,513,581.0,1
5152,505,516,581.0,1
5153,502,517,580.0,1
5154,507,516,583.0,1
5155,514,516,584.0,1
5156,513,515,582.0,1
5157,511,515,581.0,1
5158,496,508,581.0,1
5159,490,503,582.0,1
5160,496,502,584.0,1
5161,504,506,582.0,1
5162,510,512,581.0,1
5163,506,514,581.0,1
5164,505,515,581.0,1
5165,513,515,583.0,1
5166,518,515,583.0,1
5167,512,513,582.0,1
5168,511,515,581.0,1
5169,507,516,581.0,1
5170,502,508,583.0,1
5171,503,504,584.0,1
5172,499,502,582.0,1
5173,501,506,581.0,1
5174,500,511,581.0,1
5175,498,508,582.0,1
5176,511,511,584.0,1
5177,517,515,583.0,1
5178,515,515,582.0,1
5179,509,515,581.0,1
5180,502,512,582.0,1
5181,503,507,584.0,1
5182,502,503,584.0,1
5183,498,502,582.0,1
5184,494,503,581.0,1
5185,494,506,581.0,1
5186,508,513,583.0,1
5187,518,515,584.0,1
5188,515,514,583.0,1
5189,514,515,582.0,1
5190,510,517,582.0,1
5191,510,516,583.0,1
5192,514,513,585.0,1
5193,506,505,583.0,1
5194,500,503,582.0,1
5195,494,503,582.0,1
5196,500,510,582.0,1
5197,512,514,584.0,1
5198,520,515,584.0,1
5199,519,515,583.0,1
5200,513,515,582.0,1
5201,502,510,582.0,1
5202,510,514,584.0,1
5203,520,515,585.0,1
5204,513,511,583.0,1
5205,507,508,582.0,1
5206,497,506,582.0,1
5207,496,505,583.0,1
5208,506,507,585.0,1
5209,508,506,584.0,1
5210,505,505,583.0,1
5211,507,509,582.0,1
5212,509,511,582.0,1
5213,515,508,585.0,1
5214,522,507,585.0,1
5215,521,509,583.0,1
5216,515,507,582.0,1
5217,508,504,582.0,1
5218,514,502,584.0,1
5219,527,502,586.0,1
5220,537,508,584.0,1
5221,539,512,583.0,1
5222,532,512,583.0,1
5223,531,512,584.0,1
5224,538,513,586.0,1
5225,538,513,585.0,1
5226,527,509,583.0,1
5227,517,510,583.0,1
5228,505,508,583.0,1
5229,501,504,585.0,1
5230,502,503,585.0,1
5231,496,503,584.0,1
5232,491,504,583.0,1
5233,485,506,583.0,1
5234,492,511,585.0,1
5235,501,512,586.0,1
5236,502,513,584.0,1
5237,498,513,583.0,1
5238,493,514,583.0,1
5239,486,509,584.0,1
5240,489,505,586.0,1
5241,489,503,585.0,1
5242,486,503,584.0,1
5243,485,507,583.0,1
5244,484,511,583.0,1
5245,490,510,586.0,1
5246,501,509,586.0,1
5247,510,508,584.0,1
5248,530,511,584.0,1
5249,557,510,583.0,1
5250,611,511,585.0,1
5251,676,510,587.0,1
5252,720,506,585.0,1
5253,736,505,584.0,1
5254,706,505,584.0,1
5255,643,506,585.0,1
5256,590,513,587.0,1
5257,539,516,586.0,1
5258,496,516,584.0,1
5259,475,515,584.0,1
5260,464,514,584.0,1
5261,465,515,586.0,1
5262,466,515,587.0,1
