TimeStamp,ECG Data,EMG Data,EDA Data,lowGamma,highGamma,highAlpha,delta,highBeta,lowAlpha,lowBeta,theta,attention,meditation
0,498,503,769.0,1,0,0,0,0,0,0,0,0,0
1,500,504,769.0,1,0,0,0,0,0,0,0,0,0
2,502,508,768.0,1,0,0,0,0,0,0,0,0,0
3,503,513,768.0,1,0,0,0,0,0,0,0,0,0
4,505,520,768.0,1,0,0,0,0,0,0,0,0,0
5,506,528,768.0,1,0,0,0,0,0,0,0,0,0
6,507,536,768.0,1,0,0,0,0,0,0,0,0,0
7,508,543,768.0,1,0,0,0,0,0,0,0,0,0
8,508,551,767.0,1,0,0,0,0,0,0,0,0,0
9,509,558,767.0,1,0,0,0,0,0,0,0,0,0
10,509,566,767.0,1,0,0,0,0,0,0,0,0,0
11,509,573,767.0,1,0,0,0,0,0,0,0,0,0
12,509,579,766.0,1,0,0,0,0,0,0,0,0,0
13,510,584,766.0,1,0,0,0,0,0,0,0,0,0
14,510,586,766.0,1,0,0,0,0,0,0,0,0,0
15,510,589,766.0,1,0,0,0,0,0,0,0,0,0
16,510,592,765.0,1,0,0,0,0,0,0,0,0,0
17,510,593,765.0,1,0,0,0,0,0,0,0,0,0
18,510,593,765.0,1,0,0,0,0,0,0,0,0,0
19,511,593,765.0,1,0,0,0,0,0,0,0,0,0
20,511,594,765.0,1,0,0,0,0,0,0,0,0,0
21,511,594,764.0,1,0,0,0,0,0,0,0,0,0
22,512,593,764.0,1,0,0,0,0,0,0,0,0,0
23,511,593,764.0,1,0,0,0,0,0,0,0,0,0
24,511,591,764.0,1,0,0,0,0,0,0,0,0,0
25,512,589,764.0,1,0,0,0,0,0,0,0,0,0
26,512,587,763.0,1,0,0,0,0,0,0,0,0,0
27,512,585,763.0,1,0,0,0,0,0,0,0,0,0
28,512,584,763.0,1,0,0,0,0,0,0,0,0,0
29,513,582,763.0,1,0,0,0,0,0,0,0,0,0
30,514,579,763.0,1,0,0,0,0,0,0,0,0,0
31,514,576,763.0,1,0,0,0,0,0,0,0,0,0
32,514,574,763.0,1,0,0,0,0,0,0,0,0,0
33,513,573,762.0,1,0,0,0,0,0,0,0,0,0
34,513,570,762.0,1,0,0,0,0,0,0,0,0,0
35,513,567,762.0,1,0,0,0,0,0,0,0,0,0
36,513,564,762.0,1,0,0,0,0,0,0,0,0,0
37,513,563,762.0,1,0,0,0,0,0,0,0,0,0
38,513,560,762.0,1,0,0,0,0,0,0,0,0,0
39,513,557,762.0,1,0,0,0,0,0,0,0,0,0
40,513,554,762.0,1,0,0,0,0,0,0,0,0,0
41,513,551,761.0,1,0,0,0,0,0,0,0,0,0
42,512,550,761.0,1,0,0,0,0,0,0,0,0,0
43,512,548,761.0,1,0,0,0,0,0,0,0,0,0
44,513,546,761.0,1,0,0,0,0,0,0,0,0,0
45,514,544,761.0,1,0,0,0,0,0,0,0,0,0
46,514,542,761.0,1,0,0,0,0,0,0,0,0,0
47,515,540,761.0,1,0,0,0,0,0,0,0,0,0
48,515,538,761.0,1,0,0,0,0,0,0,0,0,0
49,514,537,761.0,1,0,0,0,0,0,0,0,0,0
50,514,535,761.0,1,0,0,0,0,0,0,0,0,0
51,513,533,760.0,1,0,0,0,0,0,0,0,0,0
52,512,532,760.0,1,0,0,0,0,0,0,0,0,0
53,511,531,761.0,1,0,0,0,0,0,0,0,0,0
54,509,530,760.0,1,0,0,0,0,0,0,0,0,0
55,508,529,760.0,1,0,0,0,0,0,0,0,0,0
56,507,528,760.0,1,0,0,0,0,0,0,0,0,0
57,505,527,760.0,1,0,0,0,0,0,0,0,0,0
58,504,527,760.0,1,0,0,0,0,0,0,0,0,0
59,503,527,760.0,1,0,0,0,0,0,0,0,0,0
60,502,527,760.0,1,0,0,0,0,0,0,0,0,0
61,502,526,760.0,1,0,0,0,0,0,0,0,0,0
62,501,525,760.0,1,0,0,0,0,0,0,0,0,0
63,500,523,760.0,1,0,0,0,0,0,0,0,0,0
64,499,522,760.0,1,0,0,0,0,0,0,0,0,0
65,499,521,760.0,1,0,0,0,0,0,0,0,0,0
66,499,519,760.0,1,0,0,0,0,0,0,0,0,0
67,499,518,759.0,1,0,0,0,0,0,0,0,0,0
68,499,516,759.0,1,0,0,0,0,0,0,0,0,0
69,499,515,759.0,1,0,0,0,0,0,0,0,0,0
70,498,514,759.0,1,0,0,0,0,0,0,0,0,0
71,499,513,759.0,1,0,0,0,0,0,0,0,0,0
72,499,511,759.0,1,0,0,0,0,0,0,0,0,0
73,500,510,759.0,1,0,0,0,0,0,0,0,0,0
74,500,510,759.0,1,0,0,0,0,0,0,0,0,0
75,500,509,759.0,1,0,0,0,0,0,0,0,0,0
76,500,508,759.0,1,0,0,0,0,0,0,0,0,0
77,500,507,759.0,1,0,0,0,0,0,0,0,0,0
78,501,506,759.0,1,0,0,0,0,0,0,0,0,0
79,502,505,759.0,1,0,0,0,0,0,0,0,0,0
80,502,504,759.0,1,0,0,0,0,0,0,0,0,0
81,503,503,759.0,1,0,0,0,0,0,0,0,0,0
82,503,502,759.0,1,0,0,0,0,0,0,0,0,0
83,503,501,759.0,1,0,0,0,0,0,0,0,0,0
84,504,500,759.0,1,0,0,0,0,0,0,0,0,0
85,505,499,759.0,1,0,0,0,0,0,0,0,0,0
86,505,498,759.0,1,0,0,0,0,0,0,0,0,0
87,505,497,759.0,1,0,0,0,0,0,0,0,0,0
88,505,497,759.0,1,0,0,0,0,0,0,0,0,0
89,506,496,759.0,1,0,0,0,0,0,0,0,0,0
90,506,496,759.0,1,0,0,0,0,0,0,0,0,0
91,506,496,758.0,1,0,0,0,0,0,0,0,0,0
92,507,495,759.0,1,0,0,0,0,0,0,0,0,0
93,507,494,759.0,1,0,0,0,0,0,0,0,0,0
94,508,493,759.0,1,0,0,0,0,0,0,0,0,0
95,508,493,758.0,1,0,0,0,0,0,0,0,0,0
96,509,494,758.0,1,0,0,0,0,0,0,0,0,0
97,509,494,758.0,1,0,0,0,0,0,0,0,0,0
98,509,494,758.0,1,0,0,0,0,0,0,0,0,0
99,509,492,758.0,1,0,0,0,0,0,0,0,0,0
100,509,491,758.0,1,0,0,0,0,0,0,0,0,0
101,509,491,758.0,1,0,0,0,0,0,0,0,0,0
102,509,491,758.0,1,0,0,0,0,0,0,0,0,0
103,509,491,758.0,1,0,0,0,0,0,0,0,0,0
104,511,489,758.0,1,0,0,0,0,0,0,0,0,0
105,511,489,758.0,1,0,0,0,0,0,0,0,0,0
106,511,490,758.0,1,0,0,0,0,0,0,0,0,0
107,511,490,758.0,1,0,0,0,0,0,0,0,0,0
108,511,491,758.0,1,0,0,0,0,0,0,0,0,0
109,510,491,758.0,1,0,0,0,0,0,0,0,0,0
110,510,490,758.0,1,0,0,0,0,0,0,0,0,0
111,509,490,758.0,1,0,0,0,0,0,0,0,0,0
112,509,490,758.0,1,0,0,0,0,0,0,0,0,0
113,509,490,758.0,1,0,0,0,0,0,0,0,0,0
114,509,490,758.0,1,0,0,0,0,0,0,0,0,0
115,509,489,758.0,1,0,0,0,0,0,0,0,0,0
116,508,489,758.0,1,0,0,0,0,0,0,0,0,0
117,508,489,758.0,1,0,0,0,0,0,0,0,0,0
118,508,488,758.0,1,0,0,0,0,0,0,0,0,0
119,508,488,758.0,1,0,0,0,0,0,0,0,0,0
120,509,488,758.0,1,0,0,0,0,0,0,0,0,0
121,508,488,758.0,1,0,0,0,0,0,0,0,0,0
122,508,488,758.0,1,0,0,0,0,0,0,0,0,0
123,508,488,757.0,1,0,0,0,0,0,0,0,0,0
124,508,487,758.0,1,0,0,0,0,0,0,0,0,0
125,509,487,758.0,1,0,0,0,0,0,0,0,0,0
126,509,487,757.0,1,0,0,0,0,0,0,0,0,0
127,508,487,757.0,1,0,0,0,0,0,0,0,0,0
128,508,488,757.0,1,0,0,0,0,0,0,0,0,0
129,509,488,757.0,1,0,0,0,0,0,0,0,0,0
130,509,488,757.0,1,0,0,0,0,0,0,0,0,0
131,509,488,757.0,1,0,0,0,0,0,0,0,0,0
132,509,487,757.0,1,0,0,0,0,0,0,0,0,0
133,509,487,757.0,1,0,0,0,0,0,0,0,0,0
134,508,487,757.0,1,0,0,0,0,0,0,0,0,0
135,508,487,757.0,1,0,0,0,0,0,0,0,0,0
136,507,487,757.0,1,0,0,0,0,0,0,0,0,0
137,507,487,757.0,1,0,0,0,0,0,0,0,0,0
138,507,487,757.0,1,0,0,0,0,0,0,0,0,0
139,507,487,757.0,1,0,0,0,0,0,0,0,0,0
140,508,487,757.0,1,0,0,0,0,0,0,0,0,0
141,508,486,757.0,1,0,0,0,0,0,0,0,0,0
142,508,486,757.0,1,0,0,0,0,0,0,0,0,0
143,507,485,757.0,1,0,0,0,0,0,0,0,0,0
144,508,485,757.0,1,0,0,0,0,0,0,0,0,0
145,509,486,757.0,1,0,0,0,0,0,0,0,0,0
146,509,486,756.0,1,0,0,0,0,0,0,0,0,0
147,509,486,756.0,1,0,0,0,0,0,0,0,0,0
148,509,486,756.0,1,0,0,0,0,0,0,0,0,0
149,508,486,756.0,1,0,0,0,0,0,0,0,0,0
150,508,487,756.0,1,0,0,0,0,0,0,0,0,0
151,509,487,756.0,1,0,0,0,0,0,0,0,0,0
152,509,486,756.0,1,0,0,0,0,0,0,0,0,0
153,509,485,756.0,1,0,0,0,0,0,0,0,0,0
154,509,485,756.0,1,0,0,0,0,0,0,0,0,0
155,509,485,756.0,1,0,0,0,0,0,0,0,0,0
156,507,485,756.0,1,0,0,0,0,0,0,0,0,0
157,508,485,756.0,1,0,0,0,0,0,0,0,0,0
158,509,486,756.0,1,0,0,0,0,0,0,0,0,0
159,510,486,756.0,1,0,0,0,0,0,0,0,0,0
160,510,485,756.0,1,0,0,0,0,0,0,0,0,0
161,511,485,756.0,1,0,0,0,0,0,0,0,0,0
162,510,485,756.0,1,0,0,0,0,0,0,0,0,0
163,511,485,756.0,1,0,0,0,0,0,0,0,0,0
164,512,486,756.0,1,0,0,0,0,0,0,0,0,0
165,512,486,755.0,1,0,0,0,0,0,0,0,0,0
166,512,486,756.0,1,0,0,0,0,0,0,0,0,0
167,512,486,755.0,1,0,0,0,0,0,0,0,0,0
168,513,485,756.0,1,0,0,0,0,0,0,0,0,0
169,512,484,755.0,1,0,0,0,0,0,0,0,0,0
170,511,485,755.0,1,0,0,0,0,0,0,0,0,0
171,511,486,755.0,1,0,0,0,0,0,0,0,0,0
172,511,487,755.0,1,0,0,0,0,0,0,0,0,0
173,512,487,755.0,1,0,0,0,0,0,0,0,0,0
174,512,486,755.0,1,0,0,0,0,0,0,0,0,0
175,511,486,755.0,1,0,0,0,0,0,0,0,0,0
176,512,487,755.0,1,0,0,0,0,0,0,0,0,0
177,512,487,755.0,1,0,0,0,0,0,0,0,0,0
178,513,488,755.0,1,0,0,0,0,0,0,0,0,0
179,512,488,755.0,1,0,0,0,0,0,0,0,0,0
180,512,487,755.0,1,0,0,0,0,0,0,0,0,0
181,512,488,755.0,1,0,0,0,0,0,0,0,0,0
182,512,488,755.0,1,0,0,0,0,0,0,0,0,0
183,511,488,755.0,1,0,0,0,0,0,0,0,0,0
184,511,488,755.0,1,0,0,0,0,0,0,0,0,0
185,511,487,755.0,1,0,0,0,0,0,0,0,0,0
186,511,488,755.0,1,0,0,0,0,0,0,0,0,0
187,511,488,755.0,1,0,0,0,0,0,0,0,0,0
188,511,489,755.0,1,0,0,0,0,0,0,0,0,0
189,511,488,755.0,1,0,0,0,0,0,0,0,0,0
190,513,487,755.0,1,0,0,0,0,0,0,0,0,0
191,514,487,755.0,1,0,0,0,0,0,0,0,0,0
192,515,488,755.0,1,0,0,0,0,0,0,0,0,0
193,518,487,755.0,1,0,0,0,0,0,0,0,0,0
194,522,486,755.0,1,0,0,0,0,0,0,0,0,0
195,525,485,755.0,1,0,0,0,0,0,0,0,0,0
196,525,486,755.0,1,0,0,0,0,0,0,0,0,0
197,522,488,755.0,1,0,0,0,0,0,0,0,0,0
198,519,489,755.0,1,0,0,0,0,0,0,0,0,0
199,518,489,754.0,1,0,0,0,0,0,0,0,0,0
200,517,489,755.0,1,0,0,0,0,0,0,0,0,0
201,515,490,754.0,1,0,0,0,0,0,0,0,0,0
202,513,491,754.0,1,0,0,0,0,0,0,0,0,0
203,511,492,755.0,1,0,0,0,0,0,0,0,0,0
204,510,493,754.0,1,0,0,0,0,0,0,0,0,0
205,508,495,755.0,1,0,0,0,0,0,0,0,0,0
206,508,495,754.0,1,0,0,0,0,0,0,0,0,0
207,507,495,755.0,1,0,0,0,0,0,0,0,0,0
208,507,496,754.0,1,0,0,0,0,0,0,0,0,0
209,506,496,754.0,1,0,0,0,0,0,0,0,0,0
210,507,496,754.0,1,0,0,0,0,0,0,0,0,0
211,507,496,754.0,1,0,0,0,0,0,0,0,0,0
212,507,496,754.0,1,0,0,0,0,0,0,0,0,0
213,507,496,754.0,1,0,0,0,0,0,0,0,0,0
214,507,496,754.0,1,0,0,0,0,0,0,0,0,0
215,507,496,754.0,1,0,0,0,0,0,0,0,0,0
216,507,496,754.0,1,0,0,0,0,0,0,0,0,0
217,507,497,754.0,1,0,0,0,0,0,0,0,0,0
218,508,498,754.0,1,0,0,0,0,0,0,0,0,0
219,510,497,754.0,1,0,0,0,0,0,0,0,0,0
220,513,497,754.0,1,0,0,0,0,0,0,0,0,0
221,519,496,754.0,1,0,0,0,0,0,0,0,0,0
222,529,492,754.0,1,0,0,0,0,0,0,0,0,0
223,543,487,754.0,1,0,0,0,0,0,0,0,0,0
224,561,479,754.0,1,0,0,0,0,0,0,0,0,0
225,584,468,754.0,1,0,0,0,0,0,0,0,0,0
226,612,456,754.0,1,0,0,0,0,0,0,0,0,0
227,625,450,754.0,1,0,0,0,0,0,0,0,0,0
228,615,454,754.0,1,0,0,0,0,0,0,0,0,0
229,589,467,754.0,1,0,0,0,0,0,0,0,0,0
230,553,483,754.0,1,0,0,0,0,0,0,0,0,0
231,518,498,754.0,1,0,0,0,0,0,0,0,0,0
232,494,507,754.0,1,0,0,0,0,0,0,0,0,0
233,479,511,754.0,1,0,0,0,0,0,0,0,0,0
234,469,514,754.0,1,0,0,0,0,0,0,0,0,0
235,465,514,754.0,1,0,0,0,0,0,0,0,0,0
236,467,514,754.0,1,0,0,0,0,0,0,0,0,0
237,476,512,754.0,1,0,0,0,0,0,0,0,0,0
238,484,510,754.0,1,0,0,0,0,0,0,0,0,0
239,487,508,754.0,1,0,0,0,0,0,0,0,0,0
240,488,507,754.0,1,0,0,0,0,0,0,0,0,0
241,490,506,754.0,1,0,0,0,0,0,0,0,0,0
242,490,506,754.0,1,0,0,0,0,0,0,0,0,0
243,490,505,754.0,1,0,0,0,0,0,0,0,0,0
244,491,506,754.0,1,0,0,0,0,0,0,0,0,0
245,491,505,754.0,1,0,0,0,0,0,0,0,0,0
246,492,505,754.0,1,0,0,0,0,0,0,0,0,0
247,492,505,754.0,1,0,0,0,0,0,0,0,0,0
248,493,505,754.0,1,0,0,0,0,0,0,0,0,0
249,494,505,754.0,1,0,0,0,0,0,0,0,0,0
250,494,506,754.0,1,0,0,0,0,0,0,0,0,0
251,495,507,754.0,1,0,0,0,0,0,0,0,0,0
252,491,505,754.0,1,0,0,0,0,0,0,0,0,0
253,493,505,754.0,1,0,0,0,0,0,0,0,0,0
254,495,504,754.0,1,0,0,0,0,0,0,0,0,0
255,498,504,754.0,1,0,0,0,0,0,0,0,0,0
256,501,504,754.0,1,0,0,0,0,0,0,0,0,0
257,503,504,754.0,1,0,0,0,0,0,0,0,0,0
258,502,504,754.0,1,0,0,0,0,0,0,0,0,0
259,502,503,754.0,1,0,0,0,0,0,0,0,0,0
260,503,503,754.0,1,0,0,0,0,0,0,0,0,0
261,506,503,754.0,1,0,0,0,0,0,0,0,0,0
262,506,504,754.0,1,0,0,0,0,0,0,0,0,0
263,507,505,754.0,1,0,0,0,0,0,0,0,0,0
264,507,502,754.0,1,0,0,0,0,0,0,0,0,0
265,509,499,754.0,1,0,0,0,0,0,0,0,0,0
266,509,499,754.0,1,0,0,0,0,0,0,0,0,0
267,511,499,754.0,1,0,0,0,0,0,0,0,0,0
268,510,499,754.0,1,0,0,0,0,0,0,0,0,0
269,510,499,754.0,1,0,0,0,0,0,0,0,0,0
270,511,500,754.0,1,0,0,0,0,0,0,0,0,0
271,513,499,754.0,1,0,0,0,0,0,0,0,0,0
272,513,499,754.0,1,0,0,0,0,0,0,0,0,0
273,513,499,754.0,1,0,0,0,0,0,0,0,0,0
274,512,500,754.0,1,0,0,0,0,0,0,0,0,0
275,511,500,754.0,1,0,0,0,0,0,0,0,0,0
276,512,500,754.0,1,0,0,0,0,0,0,0,0,0
277,512,502,754.0,1,0,0,0,0,0,0,0,0,0
278,509,502,754.0,1,0,0,0,0,0,0,0,0,0
279,506,501,754.0,1,0,0,0,0,0,0,0,0,0
280,501,500,754.0,1,0,0,0,0,0,0,0,0,0
281,502,500,754.0,1,0,0,0,0,0,0,0,0,0
282,511,499,754.0,1,0,0,0,0,0,0,0,0,0
283,511,500,754.0,1,0,0,0,0,0,0,0,0,0
284,514,499,754.0,1,0,0,0,0,0,0,0,0,0
285,510,499,754.0,1,0,0,0,0,0,0,0,0,0
286,505,499,754.0,1,0,0,0,0,0,0,0,0,0
287,508,500,754.0,1,0,0,0,0,0,0,0,0,0
288,515,499,754.0,1,0,0,0,0,0,0,0,0,0
289,519,499,754.0,1,0,0,0,0,0,0,0,0,0
290,519,498,754.0,1,0,0,0,0,0,0,0,0,0
291,520,498,754.0,1,0,0,0,0,0,0,0,0,0
292,521,498,754.0,1,0,0,0,0,0,0,0,0,0
293,520,498,754.0,1,0,0,0,0,0,0,0,0,0
294,519,498,754.0,1,0,0,0,0,0,0,0,0,0
295,518,498,754.0,1,0,0,0,0,0,0,0,0,0
296,516,498,754.0,1,0,0,0,0,0,0,0,0,0
297,515,497,754.0,1,0,0,0,0,0,0,0,0,0
298,514,498,754.0,1,0,0,0,0,0,0,0,0,0
299,513,498,754.0,1,0,0,0,0,0,0,0,0,0
300,511,499,754.0,1,0,0,0,0,0,0,0,0,0
301,511,498,754.0,1,0,0,0,0,0,0,0,0,0
302,511,497,754.0,1,0,0,0,0,0,0,0,0,0
303,510,497,754.0,1,0,0,0,0,0,0,0,0,0
304,510,497,754.0,1,0,0,0,0,0,0,0,0,0
305,510,498,754.0,1,0,0,0,0,0,0,0,0,0
306,510,499,754.0,1,0,0,0,0,0,0,0,0,0
307,509,500,754.0,1,0,0,0,0,0,0,0,0,0
308,509,502,754.0,1,0,0,0,0,0,0,0,0,0
309,508,502,754.0,1,0,0,0,0,0,0,0,0,0
310,507,503,754.0,1,0,0,0,0,0,0,0,0,0
311,507,504,754.0,1,0,0,0,0,0,0,0,0,0
312,506,505,754.0,1,0,0,0,0,0,0,0,0,0
313,504,507,754.0,1,0,0,0,0,0,0,0,0,0
314,503,508,754.0,1,0,0,0,0,0,0,0,0,0
315,502,510,754.0,1,0,0,0,0,0,0,0,0,0
316,501,511,754.0,1,0,0,0,0,0,0,0,0,0
317,500,511,754.0,1,0,0,0,0,0,0,0,0,0
318,500,511,754.0,1,0,0,0,0,0,0,0,0,0
319,498,511,754.0,1,0,0,0,0,0,0,0,0,0
320,497,511,754.0,1,0,0,0,0,0,0,0,0,0
321,497,512,754.0,1,0,0,0,0,0,0,0,0,0
322,496,513,754.0,1,0,0,0,0,0,0,0,0,0
323,495,515,754.0,1,0,0,0,0,0,0,0,0,0
324,495,515,754.0,1,0,0,0,0,0,0,0,0,0
325,495,515,754.0,1,0,0,0,0,0,0,0,0,0
326,492,512,754.0,1,0,0,0,0,0,0,0,0,0
327,492,509,754.0,1,0,0,0,0,0,0,0,0,0
328,496,510,754.0,1,0,0,0,0,0,0,0,0,0
329,496,512,754.0,1,0,0,0,0,0,0,0,0,0
330,496,512,754.0,1,0,0,0,0,0,0,0,0,0
331,500,512,754.0,1,0,0,0,0,0,0,0,0,0
332,501,512,754.0,1,0,0,0,0,0,0,0,0,0
333,499,513,754.0,1,0,0,0,0,0,0,0,0,0
334,499,513,754.0,1,0,0,0,0,0,0,0,0,0
335,501,513,754.0,1,0,0,0,0,0,0,0,0,0
336,504,510,754.0,1,0,0,0,0,0,0,0,0,0
337,505,508,754.0,1,0,0,0,0,0,0,0,0,0
338,505,508,754.0,1,0,0,0,0,0,0,0,0,0
339,506,508,754.0,1,0,0,0,0,0,0,0,0,0
340,507,508,754.0,1,0,0,0,0,0,0,0,0,0
341,507,508,754.0,1,0,0,0,0,0,0,0,0,0
342,508,508,754.0,1,0,0,0,0,0,0,0,0,0
343,508,508,754.0,1,0,0,0,0,0,0,0,0,0
344,508,507,754.0,1,0,0,0,0,0,0,0,0,0
345,509,507,754.0,1,0,0,0,0,0,0,0,0,0
346,510,507,754.0,1,0,0,0,0,0,0,0,0,0
347,510,507,754.0,1,0,0,0,0,0,0,0,0,0
348,510,507,754.0,1,0,0,0,0,0,0,0,0,0
349,510,506,754.0,1,0,0,0,0,0,0,0,0,0
350,510,506,754.0,1,0,0,0,0,0,0,0,0,0
351,511,507,754.0,1,0,0,0,0,0,0,0,0,0
352,511,507,754.0,1,0,0,0,0,0,0,0,0,0
353,510,507,754.0,1,0,0,0,0,0,0,0,0,0
354,509,506,754.0,1,0,0,0,0,0,0,0,0,0
355,509,506,754.0,1,0,0,0,0,0,0,0,0,0
356,509,507,754.0,1,0,0,0,0,0,0,0,0,0
357,508,506,754.0,1,0,0,0,0,0,0,0,0,0
358,508,506,754.0,1,0,0,0,0,0,0,0,0,0
359,508,506,754.0,1,0,0,0,0,0,0,0,0,0
360,507,505,754.0,1,0,0,0,0,0,0,0,0,0
361,507,505,754.0,1,0,0,0,0,0,0,0,0,0
362,507,506,754.0,1,0,0,0,0,0,0,0,0,0
363,507,506,754.0,1,0,0,0,0,0,0,0,0,0
364,506,507,754.0,1,0,0,0,0,0,0,0,0,0
365,506,506,754.0,1,0,0,0,0,0,0,0,0,0
366,506,506,754.0,1,0,0,0,0,0,0,0,0,0
367,506,506,754.0,1,0,0,0,0,0,0,0,0,0
368,506,506,754.0,1,0,0,0,0,0,0,0,0,0
369,506,507,754.0,1,0,0,0,0,0,0,0,0,0
370,507,507,754.0,1,0,0,0,0,0,0,0,0,0
371,507,506,754.0,1,0,0,0,0,0,0,0,0,0
372,507,506,754.0,1,0,0,0,0,0,0,0,0,0
373,506,507,754.0,1,0,0,0,0,0,0,0,0,0
374,506,507,754.0,1,0,0,0,0,0,0,0,0,0
375,506,508,754.0,1,0,0,0,0,0,0,0,0,0
376,507,508,754.0,1,0,0,0,0,0,0,0,0,0
377,507,508,754.0,1,0,0,0,0,0,0,0,0,0
378,507,508,754.0,1,0,0,0,0,0,0,0,0,0
379,506,508,754.0,1,0,0,0,0,0,0,0,0,0
380,506,509,754.0,1,0,0,0,0,0,0,0,0,0
381,507,509,754.0,1,0,0,0,0,0,0,0,0,0
382,508,509,754.0,1,0,0,0,0,0,0,0,0,0
383,509,509,754.0,1,0,0,0,0,0,0,0,0,0
384,510,509,754.0,1,0,0,0,0,0,0,0,0,0
385,511,510,754.0,1,0,0,0,0,0,0,0,0,0
386,511,510,754.0,1,0,0,0,0,0,0,0,0,0
387,510,508,754.0,1,0,0,0,0,0,0,0,0,0
388,507,508,754.0,1,0,0,0,0,0,0,0,0,0
389,506,508,754.0,1,0,0,0,0,0,0,0,0,0
390,511,508,754.0,1,0,0,0,0,0,0,0,0,0
391,513,507,754.0,1,0,0,0,0,0,0,0,0,0
392,513,506,754.0,1,0,0,0,0,0,0,0,0,0
393,514,506,754.0,1,0,0,0,0,0,0,0,0,0
394,517,507,754.0,1,0,0,0,0,0,0,0,0,0
395,518,507,754.0,1,0,0,0,0,0,0,0,0,0
396,518,507,754.0,1,0,0,0,0,0,0,0,0,0
397,518,507,754.0,1,0,0,0,0,0,0,0,0,0
398,518,508,754.0,1,0,0,0,0,0,0,0,0,0
399,518,507,754.0,1,0,0,0,0,0,0,0,0,0
400,517,508,754.0,1,0,0,0,0,0,0,0,0,0
401,516,509,754.0,1,0,0,0,0,0,0,0,0,0
402,515,509,754.0,1,0,0,0,0,0,0,0,0,0
403,515,509,754.0,1,0,0,0,0,0,0,0,0,0
404,515,508,754.0,1,0,0,0,0,0,0,0,0,0
405,514,508,754.0,1,0,0,0,0,0,0,0,0,0
406,514,509,754.0,1,0,0,0,0,0,0,0,0,0
407,514,509,754.0,1,0,0,0,0,0,0,0,0,0
408,514,509,754.0,1,0,0,0,0,0,0,0,0,0
409,513,509,754.0,1,0,0,0,0,0,0,0,0,0
410,513,508,754.0,1,0,0,0,0,0,0,0,0,0
411,513,508,754.0,1,0,0,0,0,0,0,0,0,0
412,512,509,754.0,1,0,0,0,0,0,0,0,0,0
413,512,509,754.0,1,0,0,0,0,0,0,0,0,0
414,511,508,754.0,1,0,0,0,0,0,0,0,0,0
415,510,508,754.0,1,0,0,0,0,0,0,0,0,0
416,510,508,754.0,1,0,0,0,0,0,0,0,0,0
417,509,508,754.0,1,0,0,0,0,0,0,0,0,0
418,508,508,754.0,1,0,0,0,0,0,0,0,0,0
419,508,508,754.0,1,0,0,0,0,0,0,0,0,0
420,508,508,754.0,1,0,0,0,0,0,0,0,0,0
421,508,508,754.0,1,0,0,0,0,0,0,0,0,0
422,508,509,754.0,1,0,0,0,0,0,0,0,0,0
423,507,508,754.0,1,0,0,0,0,0,0,0,0,0
424,506,508,754.0,1,0,0,0,0,0,0,0,0,0
425,507,509,754.0,1,0,0,0,0,0,0,0,0,0
426,507,510,754.0,1,0,0,0,0,0,0,0,0,0
427,507,510,754.0,1,0,0,0,0,0,0,0,0,0
428,506,510,754.0,1,0,0,0,0,0,0,0,0,0
429,506,509,754.0,1,0,0,0,0,0,0,0,0,0
430,506,508,754.0,1,0,0,0,0,0,0,0,0,0
431,506,508,754.0,1,0,0,0,0,0,0,0,0,0
432,506,508,754.0,1,0,0,0,0,0,0,0,0,0
433,506,508,754.0,1,0,0,0,0,0,0,0,0,0
434,507,508,754.0,1,0,0,0,0,0,0,0,0,0
435,509,508,754.0,1,0,0,0,0,0,0,0,0,0
436,511,507,754.0,1,0,0,0,0,0,0,0,0,0
437,514,506,754.0,1,0,0,0,0,0,0,0,0,0
438,518,505,754.0,1,0,0,0,0,0,0,0,0,0
439,522,505,754.0,1,0,0,0,0,0,0,0,0,0
440,525,505,754.0,1,0,0,0,0,0,0,0,0,0
441,524,505,754.0,1,0,0,0,0,0,0,0,0,0
442,521,506,754.0,1,0,0,0,0,0,0,0,0,0
443,518,507,754.0,1,0,0,0,0,0,0,0,0,0
444,517,507,754.0,1,0,0,0,0,0,0,0,0,0
445,516,507,754.0,1,0,0,0,0,0,0,0,0,0
446,514,507,754.0,1,0,0,0,0,0,0,0,0,0
447,512,508,754.0,1,0,0,0,0,0,0,0,0,0
448,510,509,754.0,1,0,0,0,0,0,0,0,0,0
449,509,510,754.0,1,0,0,0,0,0,0,0,0,0
450,508,511,754.0,1,0,0,0,0,0,0,0,0,0
451,508,511,754.0,1,0,0,0,0,0,0,0,0,0
452,508,512,754.0,1,0,0,0,0,0,0,0,0,0
453,509,512,754.0,1,0,0,0,0,0,0,0,0,0
454,509,512,754.0,1,0,0,0,0,0,0,0,0,0
455,509,512,754.0,1,0,0,0,0,0,0,0,0,0
456,508,512,754.0,1,0,0,0,0,0,0,0,0,0
457,509,512,754.0,1,0,0,0,0,0,0,0,0,0
458,509,511,754.0,1,0,0,0,0,0,0,0,0,0
459,509,512,754.0,1,0,0,0,0,0,0,0,0,0
460,508,513,754.0,1,0,0,0,0,0,0,0,0,0
461,507,513,754.0,1,0,0,0,0,0,0,0,0,0
462,507,512,754.0,1,0,0,0,0,0,0,0,0,0
463,508,512,754.0,1,0,0,0,0,0,0,0,0,0
464,511,511,754.0,1,0,0,0,0,0,0,0,0,0
465,516,509,754.0,1,0,0,0,0,0,0,0,0,0
466,523,507,754.0,1,0,0,0,0,0,0,0,0,0
467,533,503,754.0,1,0,0,0,0,0,0,0,0,0
468,548,498,754.0,1,0,0,0,0,0,0,0,0,0
469,567,488,755.0,1,0,0,0,0,0,0,0,0,0
470,592,475,754.0,1,0,0,0,0,0,0,0,0,0
471,618,464,754.0,1,0,0,0,0,0,0,0,0,0
472,627,461,754.0,1,0,0,0,0,0,0,0,0,0
473,615,467,755.0,1,0,0,0,0,0,0,0,0,0
474,587,480,754.0,1,0,0,0,0,0,0,0,0,0
475,554,498,754.0,1,0,0,0,0,0,0,0,0,0
476,520,512,754.0,1,0,0,0,0,0,0,0,0,0
477,496,521,754.0,1,0,0,0,0,0,0,0,0,0
478,483,526,754.0,1,0,0,0,0,0,0,0,0,0
479,473,527,754.0,1,0,0,0,0,0,0,0,0,0
480,467,527,754.0,1,0,0,0,0,0,0,0,0,0
481,468,524,755.0,1,0,0,0,0,0,0,0,0,0
482,477,522,754.0,1,0,0,0,0,0,0,0,0,0
483,485,519,754.0,1,0,0,0,0,0,0,0,0,0
484,490,516,754.0,1,0,0,0,0,0,0,0,0,0
485,491,515,754.0,1,0,0,0,0,0,0,0,0,0
486,492,515,754.0,1,0,0,0,0,0,0,0,0,0
487,493,515,754.0,1,0,0,0,0,0,0,0,0,0
488,494,515,754.0,1,0,0,0,0,0,0,0,0,0
489,495,514,754.0,1,0,0,0,0,0,0,0,0,0
490,496,514,754.0,1,0,0,0,0,0,0,0,0,0
491,497,514,754.0,1,0,0,0,0,0,0,0,0,0
492,498,514,754.0,1,0,0,0,0,0,0,0,0,0
493,499,513,754.0,1,0,0,0,0,0,0,0,0,0
494,500,513,754.0,1,0,0,0,0,0,0,0,0,0
495,502,512,754.0,1,0,0,0,0,0,0,0,0,0
496,502,512,754.0,1,0,0,0,0,0,0,0,0,0
497,502,512,754.0,1,0,0,0,0,0,0,0,0,0
498,503,512,754.0,1,0,0,0,0,0,0,0,0,0
499,503,512,754.0,1,0,0,0,0,0,0,0,0,0
500,503,513,754.0,1,0,0,0,0,0,0,0,0,0
501,504,513,754.0,1,0,0,0,0,0,0,0,0,0
502,504,513,754.0,1,0,0,0,0,0,0,0,0,0
503,505,512,754.0,1,0,0,0,0,0,0,0,0,0
504,506,512,754.0,1,0,0,0,0,0,0,0,0,0
505,506,512,754.0,1,0,0,0,0,0,0,0,0,0
506,507,511,754.0,1,0,0,0,0,0,0,0,0,0
507,508,511,754.0,1,0,0,0,0,0,0,0,0,0
508,508,510,754.0,1,0,0,0,0,0,0,0,0,0
509,508,510,754.0,1,0,0,0,0,0,0,0,0,0
510,508,510,754.0,1,0,0,0,0,0,0,0,0,0
511,509,509,754.0,1,0,0,0,0,0,0,0,0,0
512,509,509,754.0,1,0,0,0,0,0,0,0,0,0
513,509,508,754.0,1,0,0,0,0,0,0,0,0,0
514,509,508,754.0,1,0,0,0,0,0,0,0,0,0
515,509,509,754.0,1,0,0,0,0,0,0,0,0,0
516,509,509,754.0,1,0,0,0,0,0,0,0,0,0
517,508,509,754.0,1,0,0,0,0,0,0,0,0,0
518,508,509,754.0,1,0,0,0,0,0,0,0,0,0
519,508,508,754.0,1,0,0,0,0,0,0,0,0,0
520,508,507,754.0,1,0,0,0,0,0,0,0,0,0
521,509,507,754.0,1,0,0,0,0,0,0,0,0,0
522,509,506,754.0,1,0,0,0,0,0,0,0,0,0
523,509,507,754.0,1,0,0,0,0,0,0,0,0,0
524,510,507,754.0,1,0,0,0,0,0,0,0,0,0
525,511,507,754.0,1,0,0,0,0,0,0,0,0,0
526,511,507,754.0,1,0,0,0,0,0,0,0,0,0
527,511,506,754.0,1,0,0,0,0,0,0,0,0,0
528,511,507,754.0,1,0,0,0,0,0,0,0,0,0
529,511,507,754.0,1,0,0,0,0,0,0,0,0,0
530,511,506,754.0,1,0,0,0,0,0,0,0,0,0
531,511,506,754.0,1,0,0,0,0,0,0,0,0,0
532,512,506,754.0,1,0,0,0,0,0,0,0,0,0
533,512,505,754.0,1,0,0,0,0,0,0,0,0,0
534,513,505,754.0,1,0,0,0,0,0,0,0,0,0
535,514,506,754.0,1,0,0,0,0,0,0,0,0,0
536,514,507,754.0,1,0,0,0,0,0,0,0,0,0
537,514,506,754.0,1,0,0,0,0,0,0,0,0,0
538,513,506,754.0,1,0,0,0,0,0,0,0,0,0
539,512,506,754.0,1,0,0,0,0,0,0,0,0,0
540,512,505,754.0,1,0,0,0,0,0,0,0,0,0
541,511,505,755.0,1,0,0,0,0,0,0,0,0,0
542,511,505,754.0,1,0,0,0,0,0,0,0,0,0
543,511,505,754.0,1,0,0,0,0,0,0,0,0,0
544,511,506,754.0,1,0,0,0,0,0,0,0,0,0
545,511,506,754.0,1,0,0,0,0,0,0,0,0,0
546,511,506,754.0,1,0,0,0,0,0,0,0,0,0
547,511,507,754.0,1,0,0,0,0,0,0,0,0,0
548,511,507,754.0,1,0,0,0,0,0,0,0,0,0
549,511,507,754.0,1,0,0,0,0,0,0,0,0,0
550,510,508,754.0,1,0,0,0,0,0,0,0,0,0
551,509,509,754.0,1,0,0,0,0,0,0,0,0,0
552,509,509,754.0,1,0,0,0,0,0,0,0,0,0
553,509,510,754.0,1,0,0,0,0,0,0,0,0,0
554,508,512,754.0,1,0,0,0,0,0,0,0,0,0
555,507,512,754.0,1,0,0,0,0,0,0,0,0,0
556,506,512,754.0,1,0,0,0,0,0,0,0,0,0
557,505,513,754.0,1,0,0,0,0,0,0,0,0,0
558,505,514,754.0,1,0,0,0,0,0,0,0,0,0
559,503,515,754.0,1,0,0,0,0,0,0,0,0,0
560,502,515,754.0,1,0,0,0,0,0,0,0,0,0
561,501,516,754.0,1,0,0,0,0,0,0,0,0,0
562,501,516,754.0,1,0,0,0,0,0,0,0,0,0
563,500,517,754.0,1,0,0,0,0,0,0,0,0,0
564,499,518,754.0,1,0,0,0,0,0,0,0,0,0
565,498,518,754.0,1,0,0,0,0,0,0,0,0,0
566,498,518,754.0,1,0,0,0,0,0,0,0,0,0
567,498,518,754.0,1,0,0,0,0,0,0,0,0,0
568,497,519,754.0,1,0,0,0,0,0,0,0,0,0
569,496,518,754.0,1,0,0,0,0,0,0,0,0,0
570,496,518,755.0,1,0,0,0,0,0,0,0,0,0
571,496,518,754.0,1,0,0,0,0,0,0,0,0,0
572,496,519,754.0,1,0,0,0,0,0,0,0,0,0
573,497,518,754.0,1,0,0,0,0,0,0,0,0,0
574,497,517,754.0,1,0,0,0,0,0,0,0,0,0
575,497,517,754.0,1,0,0,0,0,0,0,0,0,0
576,497,517,754.0,1,0,0,0,0,0,0,0,0,0
577,498,516,754.0,1,0,0,0,0,0,0,0,0,0
578,498,515,755.0,1,0,0,0,0,0,0,0,0,0
579,497,515,754.0,1,0,0,0,0,0,0,0,0,0
580,498,515,754.0,1,0,0,0,0,0,0,0,0,0
581,499,515,754.0,1,0,0,0,0,0,0,0,0,0
582,500,515,754.0,1,0,0,0,0,0,0,0,0,0
583,501,514,754.0,1,0,0,0,0,0,0,0,0,0
584,503,514,755.0,1,0,0,0,0,0,0,0,0,0
585,504,513,754.0,1,0,0,0,0,0,0,0,0,0
586,504,514,754.0,1,0,0,0,0,0,0,0,0,0
587,505,515,754.0,1,0,0,0,0,0,0,0,0,0
588,506,514,754.0,1,0,0,0,0,0,0,0,0,0
589,506,514,754.0,1,0,0,0,0,0,0,0,0,0
590,507,513,754.0,1,0,0,0,0,0,0,0,0,0
591,507,513,754.0,1,0,0,0,0,0,0,0,0,0
592,507,513,754.0,1,0,0,0,0,0,0,0,0,0
593,508,513,754.0,1,0,0,0,0,0,0,0,0,0
594,508,513,754.0,1,0,0,0,0,0,0,0,0,0
595,508,513,754.0,1,0,0,0,0,0,0,0,0,0
596,509,513,754.0,1,0,0,0,0,0,0,0,0,0
597,509,513,754.0,1,0,0,0,0,0,0,0,0,0
598,509,512,754.0,1,0,0,0,0,0,0,0,0,0
599,509,512,754.0,1,0,0,0,0,0,0,0,0,0
600,509,512,755.0,1,0,0,0,0,0,0,0,0,0
601,509,512,754.0,1,0,0,0,0,0,0,0,0,0
602,508,512,754.0,1,0,0,0,0,0,0,0,0,0
603,509,512,754.0,1,0,0,0,0,0,0,0,0,0
604,509,511,755.0,1,0,0,0,0,0,0,0,0,0
605,510,512,754.0,1,0,0,0,0,0,0,0,0,0
606,510,511,754.0,1,0,0,0,0,0,0,0,0,0
607,511,510,754.0,1,0,0,0,0,0,0,0,0,0
608,511,510,754.0,1,0,0,0,0,0,0,0,0,0
609,511,511,754.0,1,0,0,0,0,0,0,0,0,0
610,510,511,755.0,1,0,0,0,0,0,0,0,0,0
611,510,511,755.0,1,0,0,0,0,0,0,0,0,0
612,510,511,755.0,1,0,0,0,0,0,0,0,0,0
613,510,512,755.0,1,0,0,0,0,0,0,0,0,0
614,510,512,755.0,1,0,0,0,0,0,0,0,0,0
615,510,513,755.0,1,0,0,0,0,0,0,0,0,0
616,510,513,754.0,1,0,0,0,0,0,0,0,0,0
617,509,513,755.0,1,0,0,0,0,0,0,0,0,0
618,510,513,754.0,1,0,0,0,0,0,0,0,0,0
619,510,513,755.0,1,0,0,0,0,0,0,0,0,0
620,510,513,754.0,1,0,0,0,0,0,0,0,0,0
621,509,513,755.0,1,0,0,0,0,0,0,0,0,0
622,509,512,755.0,1,0,0,0,0,0,0,0,0,0
623,509,511,754.0,1,0,0,0,0,0,0,0,0,0
624,510,510,754.0,1,0,0,0,0,0,0,0,0,0
625,509,511,754.0,1,0,0,0,0,0,0,0,0,0
626,509,511,754.0,1,0,0,0,0,0,0,0,0,0
627,510,511,755.0,1,0,0,0,0,0,0,0,0,0
628,510,510,755.0,1,0,0,0,0,0,0,0,0,0
629,510,510,755.0,1,0,0,0,0,0,0,0,0,0
630,509,512,755.0,1,0,0,0,0,0,0,0,0,0
631,509,512,755.0,1,0,0,0,0,0,0,0,0,0
632,509,513,755.0,1,0,0,0,0,0,0,0,0,0
633,509,513,754.0,1,0,0,0,0,0,0,0,0,0
634,508,513,755.0,1,0,0,0,0,0,0,0,0,0
635,507,513,754.0,1,0,0,0,0,0,0,0,0,0
636,508,512,755.0,1,0,0,0,0,0,0,0,0,0
637,509,512,754.0,1,0,0,0,0,0,0,0,0,0
638,510,512,755.0,1,0,0,0,0,0,0,0,0,0
639,510,513,755.0,1,0,0,0,0,0,0,0,0,0
640,510,513,755.0,1,0,0,0,0,0,0,0,0,0
641,510,514,755.0,1,0,0,0,0,0,0,0,0,0
642,510,514,755.0,1,0,0,0,0,0,0,0,0,0
643,510,514,755.0,1,0,0,0,0,0,0,0,0,0
644,510,514,755.0,1,0,0,0,0,0,0,0,0,0
645,510,514,755.0,1,0,0,0,0,0,0,0,0,0
646,510,514,755.0,1,0,0,0,0,0,0,0,0,0
647,510,513,754.0,1,0,0,0,0,0,0,0,0,0
648,509,514,755.0,1,0,0,0,0,0,0,0,0,0
649,509,513,755.0,1,0,0,0,0,0,0,0,0,0
650,510,512,755.0,1,0,0,0,0,0,0,0,0,0
651,509,513,755.0,1,0,0,0,0,0,0,0,0,0
652,509,513,755.0,1,0,0,0,0,0,0,0,0,0
653,508,512,755.0,1,0,0,0,0,0,0,0,0,0
654,508,511,755.0,1,0,0,0,0,0,0,0,0,0
655,510,511,755.0,1,0,0,0,0,0,0,0,0,0
656,511,511,755.0,1,0,0,0,0,0,0,0,0,0
657,512,511,754.0,1,0,0,0,0,0,0,0,0,0
658,513,512,755.0,1,0,0,0,0,0,0,0,0,0
659,516,511,754.0,1,0,0,0,0,0,0,0,0,0
660,519,510,755.0,1,0,0,0,0,0,0,0,0,0
661,520,509,755.0,1,0,0,0,0,0,0,0,0,0
662,520,509,755.0,1,0,0,0,0,0,0,0,0,0
663,518,510,755.0,1,0,0,0,0,0,0,0,0,0
664,517,510,755.0,1,0,0,0,0,0,0,0,0,0
665,516,509,755.0,1,0,0,0,0,0,0,0,0,0
666,514,509,755.0,1,0,0,0,0,0,0,0,0,0
667,512,509,755.0,1,0,0,0,0,0,0,0,0,0
668,510,510,755.0,1,0,0,0,0,0,0,0,0,0
669,509,511,755.0,1,0,0,0,0,0,0,0,0,0
670,507,511,755.0,1,0,0,0,0,0,0,0,0,0
671,506,511,755.0,1,0,0,0,0,0,0,0,0,0
672,506,512,755.0,1,0,0,0,0,0,0,0,0,0
673,505,512,755.0,1,0,0,0,0,0,0,0,0,0
674,504,513,755.0,1,0,0,0,0,0,0,0,0,0
675,503,513,755.0,1,0,0,0,0,0,0,0,0,0
676,503,513,755.0,1,0,0,0,0,0,0,0,0,0
677,504,512,755.0,1,0,0,0,0,0,0,0,0,0
678,504,512,755.0,1,0,0,0,0,0,0,0,0,0
679,504,512,755.0,1,0,0,0,0,0,0,0,0,0
680,503,513,755.0,1,0,0,0,0,0,0,0,0,0
681,503,512,755.0,1,0,0,0,0,0,0,0,0,0
682,504,512,755.0,1,0,0,0,0,0,0,0,0,0
683,504,513,755.0,1,0,0,0,0,0,0,0,0,0
684,504,513,755.0,1,0,0,0,0,0,0,0,0,0
685,506,513,755.0,1,0,0,0,0,0,0,0,0,0
686,509,511,755.0,1,0,0,0,0,0,0,0,0,0
687,515,510,755.0,1,0,0,0,0,0,0,0,0,0
688,525,508,755.0,1,0,0,0,0,0,0,0,0,0
689,540,504,755.0,1,0,0,0,0,0,0,0,0,0
690,558,497,755.0,1,0,0,0,0,0,0,0,0,0
691,582,487,755.0,1,0,0,0,0,0,0,0,0,0
692,610,478,755.0,1,0,0,0,0,0,0,0,0,0
693,625,473,755.0,1,0,0,0,0,0,0,0,0,0
694,618,476,755.0,1,0,0,0,0,0,0,0,0,0
695,592,484,755.0,1,0,0,0,0,0,0,0,0,0
696,555,496,755.0,1,0,0,0,0,0,0,0,0,0
697,519,509,755.0,1,0,0,0,0,0,0,0,0,0
698,494,518,755.0,1,0,0,0,0,0,0,0,0,0
699,477,523,755.0,1,0,0,0,0,0,0,0,0,0
700,468,524,755.0,1,0,0,0,0,0,0,0,0,0
701,463,524,755.0,1,0,0,0,0,0,0,0,0,0
702,466,521,755.0,1,0,0,0,0,0,0,0,0,0
703,474,520,755.0,1,0,0,0,0,0,0,0,0,0
704,479,519,755.0,1,0,0,0,0,0,0,0,0,0
705,482,518,755.0,1,0,0,0,0,0,0,0,0,0
706,483,518,755.0,1,0,0,0,0,0,0,0,0,0
707,484,517,755.0,1,0,0,0,0,0,0,0,0,0
708,485,516,755.0,1,0,0,0,0,0,0,0,0,0
709,486,516,755.0,1,0,0,0,0,0,0,0,0,0
710,487,516,755.0,1,0,0,0,0,0,0,0,0,0
711,487,515,755.0,1,0,0,0,0,0,0,0,0,0
712,488,515,755.0,1,0,0,0,0,0,0,0,0,0
713,489,514,755.0,1,0,0,0,0,0,0,0,0,0
714,489,514,755.0,1,0,0,0,0,0,0,0,0,0
715,490,514,755.0,1,0,0,0,0,0,0,0,0,0
716,491,514,755.0,1,0,0,0,0,0,0,0,0,0
717,491,515,755.0,1,0,0,0,0,0,0,0,0,0
718,493,515,755.0,1,0,0,0,0,0,0,0,0,0
719,494,514,755.0,1,0,0,0,0,0,0,0,0,0
720,495,514,755.0,1,0,0,0,0,0,0,0,0,0
721,496,514,755.0,1,0,0,0,0,0,0,0,0,0
722,497,513,755.0,1,0,0,0,0,0,0,0,0,0
723,498,513,755.0,1,0,0,0,0,0,0,0,0,0
724,499,513,755.0,1,0,0,0,0,0,0,0,0,0
725,498,512,755.0,1,0,0,0,0,0,0,0,0,0
726,498,513,755.0,1,0,0,0,0,0,0,0,0,0
727,498,512,755.0,1,0,0,0,0,0,0,0,0,0
728,499,512,755.0,1,0,0,0,0,0,0,0,0,0
729,500,512,755.0,1,0,0,0,0,0,0,0,0,0
730,502,511,755.0,1,0,0,0,0,0,0,0,0,0
731,503,511,755.0,1,0,0,0,0,0,0,0,0,0
732,505,511,755.0,1,0,0,0,0,0,0,0,0,0
733,505,511,755.0,1,0,0,0,0,0,0,0,0,0
734,505,512,755.0,1,0,0,0,0,0,0,0,0,0
735,505,511,755.0,1,0,0,0,0,0,0,0,0,0
736,505,511,755.0,1,0,0,0,0,0,0,0,0,0
737,505,511,755.0,1,0,0,0,0,0,0,0,0,0
738,507,511,755.0,1,0,0,0,0,0,0,0,0,0
739,507,511,755.0,1,0,0,0,0,0,0,0,0,0
740,506,511,755.0,1,0,0,0,0,0,0,0,0,0
741,507,510,755.0,1,0,0,0,0,0,0,0,0,0
742,510,510,755.0,1,0,0,0,0,0,0,0,0,0
743,511,509,755.0,1,0,0,0,0,0,0,0,0,0
744,511,509,755.0,1,0,0,0,0,0,0,0,0,0
745,511,509,755.0,1,0,0,0,0,0,0,0,0,0
746,512,508,755.0,1,0,0,0,0,0,0,0,0,0
747,512,508,755.0,1,0,0,0,0,0,0,0,0,0
748,512,509,755.0,1,0,0,0,0,0,0,0,0,0
749,512,508,755.0,1,0,0,0,0,0,0,0,0,0
750,513,507,755.0,1,0,0,0,0,0,0,0,0,0
751,513,507,755.0,1,0,0,0,0,0,0,0,0,0
752,512,508,755.0,1,0,0,0,0,0,0,0,0,0
753,512,508,755.0,1,0,0,0,0,0,0,0,0,0
754,512,508,755.0,1,0,0,0,0,0,0,0,0,0
755,513,507,755.0,1,0,0,0,0,0,0,0,0,0
756,513,507,755.0,1,0,0,0,0,0,0,0,0,0
757,512,508,755.0,1,0,0,0,0,0,0,0,0,0
758,512,508,755.0,1,0,0,0,0,0,0,0,0,0
759,512,507,755.0,1,0,0,0,0,0,0,0,0,0
760,512,507,755.0,1,0,0,0,0,0,0,0,0,0
761,512,506,755.0,1,0,0,0,0,0,0,0,0,0
762,512,504,755.0,1,0,0,0,0,0,0,0,0,0
763,512,504,755.0,1,0,0,0,0,0,0,0,0,0
764,512,506,755.0,1,0,0,0,0,0,0,0,0,0
765,511,507,755.0,1,0,0,0,0,0,0,0,0,0
766,510,508,755.0,1,0,0,0,0,0,0,0,0,0
767,510,509,755.0,1,0,0,0,0,0,0,0,0,0
768,510,510,755.0,1,0,0,0,0,0,0,0,0,0
769,509,510,755.0,1,0,0,0,0,0,0,0,0,0
770,510,509,755.0,1,0,0,0,0,0,0,0,0,0
771,509,509,755.0,1,0,0,0,0,0,0,0,0,0
772,509,510,755.0,1,0,0,0,0,0,0,0,0,0
773,509,509,755.0,1,0,0,0,0,0,0,0,0,0
774,508,510,755.0,1,0,0,0,0,0,0,0,0,0
775,507,512,755.0,1,0,0,0,0,0,0,0,0,0
776,507,513,755.0,1,0,0,0,0,0,0,0,0,0
777,505,514,755.0,1,0,0,0,0,0,0,0,0,0
778,504,514,755.0,1,0,0,0,0,0,0,0,0,0
779,503,515,755.0,1,0,0,0,0,0,0,0,0,0
780,503,517,755.0,1,0,0,0,0,0,0,0,0,0
781,501,517,755.0,1,0,0,0,0,0,0,0,0,0
782,498,517,755.0,1,0,0,0,0,0,0,0,0,0
783,497,517,755.0,1,0,0,0,0,0,0,0,0,0
784,498,518,755.0,1,0,0,0,0,0,0,0,0,0
785,499,518,755.0,1,0,0,0,0,0,0,0,0,0
786,498,518,755.0,1,0,0,0,0,0,0,0,0,0
787,498,517,755.0,1,0,0,0,0,0,0,0,0,0
788,497,516,755.0,1,0,0,0,0,0,0,0,0,0
789,497,514,755.0,1,0,0,0,0,0,0,0,0,0
790,497,514,755.0,1,0,0,0,0,0,0,0,0,0
791,497,515,755.0,1,0,0,0,0,0,0,0,0,0
792,497,516,755.0,1,0,0,0,0,0,0,0,0,0
793,496,516,755.0,1,0,0,0,0,0,0,0,0,0
794,497,516,755.0,1,0,0,0,0,0,0,0,0,0
795,497,517,755.0,1,0,0,0,0,0,0,0,0,0
796,497,516,755.0,1,0,0,0,0,0,0,0,0,0
797,498,516,755.0,1,0,0,0,0,0,0,0,0,0
798,499,516,755.0,1,0,0,0,0,0,0,0,0,0
799,500,516,755.0,1,0,0,0,0,0,0,0,0,0
800,500,516,755.0,1,0,0,0,0,0,0,0,0,0
801,501,517,755.0,1,0,0,0,0,0,0,0,0,0
802,501,517,755.0,1,0,0,0,0,0,0,0,0,0
803,502,516,755.0,1,0,0,0,0,0,0,0,0,0
804,502,515,755.0,1,0,0,0,0,0,0,0,0,0
805,503,515,755.0,1,0,0,0,0,0,0,0,0,0
806,504,514,755.0,1,0,0,0,0,0,0,0,0,0
807,504,513,755.0,1,0,0,0,0,0,0,0,0,0
808,505,512,755.0,1,0,0,0,0,0,0,0,0,0
809,505,512,755.0,1,0,0,0,0,0,0,0,0,0
810,506,513,755.0,1,0,0,0,0,0,0,0,0,0
811,506,512,755.0,1,0,0,0,0,0,0,0,0,0
812,507,514,755.0,1,0,0,0,0,0,0,0,0,0
813,507,514,755.0,1,0,0,0,0,0,0,0,0,0
814,507,512,755.0,1,0,0,0,0,0,0,0,0,0
815,507,510,755.0,1,0,0,0,0,0,0,0,0,0
816,507,510,755.0,1,0,0,0,0,0,0,0,0,0
817,507,510,755.0,1,0,0,0,0,0,0,0,0,0
818,507,510,755.0,1,0,0,0,0,0,0,0,0,0
819,508,510,755.0,1,0,0,0,0,0,0,0,0,0
820,508,510,755.0,1,0,0,0,0,0,0,0,0,0
821,508,510,755.0,1,0,0,0,0,0,0,0,0,0
822,509,509,755.0,1,0,0,0,0,0,0,0,0,0
823,509,510,755.0,1,0,0,0,0,0,0,0,0,0
824,509,510,755.0,1,0,0,0,0,0,0,0,0,0
825,510,509,755.0,1,0,0,0,0,0,0,0,0,0
826,510,509,755.0,1,0,0,0,0,0,0,0,0,0
827,511,508,755.0,1,0,0,0,0,0,0,0,0,0
828,511,508,755.0,1,0,0,0,0,0,0,0,0,0
829,512,508,755.0,1,0,0,0,0,0,0,0,0,0
830,511,509,755.0,1,0,0,0,0,0,0,0,0,0
831,511,509,755.0,1,0,0,0,0,0,0,0,0,0
832,511,508,755.0,1,0,0,0,0,0,0,0,0,0
833,511,508,755.0,1,0,0,0,0,0,0,0,0,0
834,511,508,755.0,1,0,0,0,0,0,0,0,0,0
835,510,509,755.0,1,0,0,0,0,0,0,0,0,0
836,510,510,755.0,1,0,0,0,0,0,0,0,0,0
837,510,510,755.0,1,0,0,0,0,0,0,0,0,0
838,509,511,755.0,1,0,0,0,0,0,0,0,0,0
839,510,511,755.0,1,0,0,0,0,0,0,0,0,0
840,510,510,755.0,1,0,0,0,0,0,0,0,0,0
841,510,509,755.0,1,0,0,0,0,0,0,0,0,0
842,510,509,755.0,1,0,0,0,0,0,0,0,0,0
843,509,510,755.0,1,0,0,0,0,0,0,0,0,0
844,509,510,755.0,1,0,0,0,0,0,0,0,0,0
845,508,509,755.0,1,0,0,0,0,0,0,0,0,0
846,508,509,755.0,1,0,0,0,0,0,0,0,0,0
847,508,508,755.0,1,0,0,0,0,0,0,0,0,0
848,508,509,755.0,1,0,0,0,0,0,0,0,0,0
849,508,509,755.0,1,0,0,0,0,0,0,0,0,0
850,508,509,755.0,1,0,0,0,0,0,0,0,0,0
851,508,509,755.0,1,0,0,0,0,0,0,0,0,0
852,509,510,755.0,1,0,0,0,0,0,0,0,0,0
853,508,510,755.0,1,0,0,0,0,0,0,0,0,0
854,508,510,755.0,1,0,0,0,0,0,0,0,0,0
855,508,511,755.0,1,0,0,0,0,0,0,0,0,0
856,508,510,755.0,1,0,0,0,0,0,0,0,0,0
857,508,510,755.0,1,0,0,0,0,0,0,0,0,0
858,508,510,755.0,1,0,0,0,0,0,0,0,0,0
859,508,510,755.0,1,0,0,0,0,0,0,0,0,0
860,508,510,755.0,1,0,0,0,0,0,0,0,0,0
861,509,509,755.0,1,0,0,0,0,0,0,0,0,0
862,509,508,755.0,1,0,0,0,0,0,0,0,0,0
863,509,509,755.0,1,0,0,0,0,0,0,0,0,0
864,509,509,755.0,1,0,0,0,0,0,0,0,0,0
865,509,509,755.0,1,0,0,0,0,0,0,0,0,0
866,509,509,755.0,1,0,0,0,0,0,0,0,0,0
867,509,510,755.0,1,0,0,0,0,0,0,0,0,0
868,509,510,755.0,1,0,0,0,0,0,0,0,0,0
869,509,510,755.0,1,0,0,0,0,0,0,0,0,0
870,509,510,755.0,1,0,0,0,0,0,0,0,0,0
871,509,509,755.0,1,0,0,0,0,0,0,0,0,0
872,510,509,755.0,1,0,0,0,0,0,0,0,0,0
873,510,509,755.0,1,0,0,0,0,0,0,0,0,0
874,510,509,755.0,1,0,0,0,0,0,0,0,0,0
875,511,509,755.0,1,0,0,0,0,0,0,0,0,0
876,511,509,755.0,1,0,0,0,0,0,0,0,0,0
877,511,509,755.0,1,0,0,0,0,0,0,0,0,0
878,512,509,755.0,1,0,0,0,0,0,0,0,0,0
879,512,508,755.0,1,0,0,0,0,0,0,0,0,0
880,512,508,755.0,1,0,0,0,0,0,0,0,0,0
881,512,508,755.0,1,0,0,0,0,0,0,0,0,0
882,512,507,755.0,1,0,0,0,0,0,0,0,0,0
883,512,507,755.0,1,0,0,0,0,0,0,0,0,0
884,511,506,755.0,1,0,0,0,0,0,0,0,0,0
885,511,507,755.0,1,0,0,0,0,0,0,0,0,0
886,511,508,755.0,1,0,0,0,0,0,0,0,0,0
887,511,509,755.0,1,0,0,0,0,0,0,0,0,0
888,510,509,755.0,1,0,0,0,0,0,0,0,0,0
889,510,507,755.0,1,0,0,0,0,0,0,0,0,0
890,512,507,755.0,1,0,0,0,0,0,0,0,0,0
891,513,507,755.0,1,0,0,0,0,0,0,0,0,0
892,515,509,755.0,1,0,0,0,0,0,0,0,0,0
893,516,508,755.0,1,0,0,0,0,0,0,0,0,0
894,519,507,755.0,1,0,0,0,0,0,0,0,0,0
895,524,506,755.0,1,0,0,0,0,0,0,0,0,0
896,526,505,755.0,1,0,0,0,0,0,0,0,0,0
897,526,505,755.0,1,0,0,0,0,0,0,0,0,0
898,524,505,755.0,1,0,0,0,0,0,0,0,0,0
899,523,505,755.0,1,0,0,0,0,0,0,0,0,0
900,522,505,755.0,1,0,0,0,0,0,0,0,0,0
901,520,506,755.0,1,0,0,0,0,0,0,0,0,0
902,518,507,755.0,1,0,0,0,0,0,0,0,0,0
903,517,508,755.0,1,0,0,0,0,0,0,0,0,0
904,515,508,755.0,1,0,0,0,0,0,0,0,0,0
905,514,508,755.0,1,0,0,0,0,0,0,0,0,0
906,512,508,755.0,1,0,0,0,0,0,0,0,0,0
907,511,509,755.0,1,0,0,0,0,0,0,0,0,0
908,511,510,755.0,1,0,0,0,0,0,0,0,0,0
909,511,510,755.0,1,0,0,0,0,0,0,0,0,0
910,511,510,755.0,1,0,0,0,0,0,0,0,0,0
911,511,511,755.0,1,0,0,0,0,0,0,0,0,0
912,511,511,755.0,1,0,0,0,0,0,0,0,0,0
913,511,511,755.0,1,0,0,0,0,0,0,0,0,0
914,511,511,755.0,1,0,0,0,0,0,0,0,0,0
915,510,510,755.0,1,0,0,0,0,0,0,0,0,0
916,510,510,755.0,1,0,0,0,0,0,0,0,0,0
917,510,509,755.0,1,0,0,0,0,0,0,0,0,0
918,510,510,755.0,1,0,0,0,0,0,0,0,0,0
919,510,510,755.0,1,0,0,0,0,0,0,0,0,0
920,513,511,755.0,1,0,0,0,0,0,0,0,0,0
921,517,510,755.0,1,0,0,0,0,0,0,0,0,0
922,523,509,755.0,1,0,0,0,0,0,0,0,0,0
923,533,506,755.0,1,0,0,0,0,0,0,0,0,0
924,547,500,755.0,1,0,0,0,0,0,0,0,0,0
925,565,491,755.0,1,0,0,0,0,0,0,0,0,0
926,590,480,755.0,1,0,0,0,0,0,0,0,0,0
927,616,470,756.0,1,0,0,0,0,0,0,0,0,0
928,627,466,756.0,1,0,0,0,0,0,0,0,0,0
929,616,470,756.0,1,0,0,0,0,0,0,0,0,0
930,588,481,755.0,1,0,0,0,0,0,0,0,0,0
931,552,496,755.0,1,0,0,0,0,0,0,0,0,0
932,517,511,755.0,1,0,0,0,0,0,0,0,0,0
933,494,519,755.0,1,0,0,0,0,0,0,0,0,0
934,480,524,755.0,1,0,0,0,0,0,0,0,0,0
935,470,526,755.0,1,0,0,0,0,0,0,0,0,0
936,465,526,756.0,1,0,0,0,0,0,0,0,0,0
937,467,524,756.0,1,0,0,0,0,0,0,0,0,0
938,476,521,755.0,1,0,0,0,0,0,0,0,0,0
939,482,519,756.0,1,0,0,0,0,0,0,0,0,0
940,486,518,755.0,1,0,0,0,0,0,0,0,0,0
941,488,517,755.0,1,0,0,0,0,0,0,0,0,0
942,488,516,756.0,1,0,0,0,0,0,0,0,0,0
943,488,515,755.0,1,0,0,0,0,0,0,0,0,0
944,490,516,756.0,1,0,0,0,0,0,0,0,0,0
945,490,516,755.0,1,0,0,0,0,0,0,0,0,0
946,491,516,755.0,1,0,0,0,0,0,0,0,0,0
947,492,515,755.0,1,0,0,0,0,0,0,0,0,0
948,493,515,755.0,1,0,0,0,0,0,0,0,0,0
949,494,515,755.0,1,0,0,0,0,0,0,0,0,0
950,494,515,755.0,1,0,0,0,0,0,0,0,0,0
951,496,514,755.0,1,0,0,0,0,0,0,0,0,0
952,497,514,756.0,1,0,0,0,0,0,0,0,0,0
953,498,513,755.0,1,0,0,0,0,0,0,0,0,0
954,498,514,755.0,1,0,0,0,0,0,0,0,0,0
955,499,513,755.0,1,0,0,0,0,0,0,0,0,0
956,499,513,755.0,1,0,0,0,0,0,0,0,0,0
957,500,513,755.0,1,0,0,0,0,0,0,0,0,0
958,501,513,755.0,1,0,0,0,0,0,0,0,0,0
959,501,513,755.0,1,0,0,0,0,0,0,0,0,0
960,501,513,755.0,1,0,0,0,0,0,0,0,0,0
961,502,513,755.0,1,0,0,0,0,0,0,0,0,0
962,503,511,755.0,1,0,0,0,0,0,0,0,0,0
963,504,511,755.0,1,0,0,0,0,0,0,0,0,0
964,504,511,755.0,1,0,0,0,0,0,0,0,0,0
965,504,511,755.0,1,0,0,0,0,0,0,0,0,0
966,505,511,755.0,1,0,0,0,0,0,0,0,0,0
967,505,510,755.0,1,0,0,0,0,0,0,0,0,0
968,505,510,755.0,1,0,0,0,0,0,0,0,0,0
969,506,510,755.0,1,0,0,0,0,0,0,0,0,0
970,506,511,755.0,1,0,0,0,0,0,0,0,0,0
971,507,511,755.0,1,0,0,0,0,0,0,0,0,0
972,508,510,755.0,1,0,0,0,0,0,0,0,0,0
973,508,510,756.0,1,0,0,0,0,0,0,0,0,0
974,508,510,755.0,1,0,0,0,0,0,0,0,0,0
975,508,509,755.0,1,0,0,0,0,0,0,0,0,0
976,509,510,755.0,1,0,0,0,0,0,0,0,0,0
977,510,510,755.0,1,0,0,0,0,0,0,0,0,0
978,510,510,755.0,1,0,0,0,0,0,0,0,0,0
979,511,510,755.0,1,0,0,0,0,0,0,0,0,0
980,511,509,755.0,1,0,0,0,0,0,0,0,0,0
981,511,508,755.0,1,0,0,0,0,0,0,0,0,0
982,512,508,755.0,1,0,0,0,0,0,0,0,0,0
983,512,508,755.0,1,0,0,0,0,0,0,0,0,0
984,512,508,755.0,1,0,0,0,0,0,0,0,0,0
985,512,508,755.0,1,0,0,0,0,0,0,0,0,0
986,512,508,755.0,1,0,0,0,0,0,0,0,0,0
987,512,509,755.0,1,0,0,0,0,0,0,0,0,0
988,513,509,755.0,1,0,0,0,0,0,0,0,0,0
989,514,508,755.0,1,0,0,0,0,0,0,0,0,0
990,514,507,755.0,1,0,0,0,0,0,0,0,0,0
991,513,507,755.0,1,0,0,0,0,0,0,0,0,0
992,513,506,755.0,1,0,0,0,0,0,0,0,0,0
993,513,505,755.0,1,0,0,0,0,0,0,0,0,0
994,513,506,755.0,1,0,0,0,0,0,0,0,0,0
995,514,506,755.0,1,0,0,0,0,0,0,0,0,0
996,514,507,755.0,1,0,0,0,0,0,0,0,0,0
997,514,506,755.0,1,0,0,0,0,0,0,0,0,0
998,514,507,755.0,1,0,0,0,0,0,0,0,0,0
999,513,507,755.0,1,0,0,0,0,0,0,0,0,0
1000,514,507,755.0,1,0,0,0,0,0,0,0,0,0
1001,513,507,755.0,1,0,0,0,0,0,0,0,0,0
1002,513,507,755.0,1,0,0,0,0,0,0,0,0,0
1003,513,508,755.0,1,0,0,0,0,0,0,0,0,0
1004,513,509,755.0,1,0,0,0,0,0,0,0,0,0
1005,513,509,755.0,1,0,0,0,0,0,0,0,0,0
1006,512,509,755.0,1,0,0,0,0,0,0,0,0,0
1007,512,509,755.0,1,0,0,0,0,0,0,0,0,0
1008,510,509,755.0,1,0,0,0,0,0,0,0,0,0
1009,509,511,755.0,1,0,0,0,0,0,0,0,0,0
1010,509,513,755.0,1,0,0,0,0,0,0,0,0,0
1011,508,513,755.0,1,0,0,0,0,0,0,0,0,0
1012,507,513,755.0,1,0,0,0,0,0,0,0,0,0
1013,506,514,755.0,1,0,0,0,0,0,0,0,0,0
1014,505,515,755.0,1,0,0,0,0,0,0,0,0,0
1015,503,516,755.0,1,0,0,0,0,0,0,0,0,0
1016,502,516,756.0,1,0,0,0,0,0,0,0,0,0
1017,501,517,755.0,1,0,0,0,0,0,0,0,0,0
1018,500,517,755.0,1,0,0,0,0,0,0,0,0,0
1019,499,517,755.0,1,0,0,0,0,0,0,0,0,0
1020,499,517,755.0,1,0,0,0,0,0,0,0,0,0
1021,498,517,755.0,1,0,0,0,0,0,0,0,0,0
1022,498,517,755.0,1,0,0,0,0,0,0,0,0,0
1023,497,518,755.0,1,0,0,0,0,0,0,0,0,0
1024,497,519,755.0,1,0,0,0,0,0,0,0,0,0
1025,498,519,756.0,1,0,0,0,0,0,0,0,0,0
1026,497,518,755.0,1,0,0,0,0,0,0,0,0,0
1027,497,518,755.0,1,0,0,0,0,0,0,0,0,0
1028,497,518,755.0,1,0,0,0,0,0,0,0,0,0
1029,498,517,755.0,1,0,0,0,0,0,0,0,0,0
1030,498,518,755.0,1,0,0,0,0,0,0,0,0,0
1031,498,519,755.0,1,0,0,0,0,0,0,0,0,0
1032,499,519,755.0,1,0,0,0,0,0,0,0,0,0
1033,499,518,755.0,1,0,0,0,0,0,0,0,0,0
1034,499,517,755.0,1,0,0,0,0,0,0,0,0,0
1035,498,517,755.0,1,0,0,0,0,0,0,0,0,0
1036,498,516,755.0,1,0,0,0,0,0,0,0,0,0
1037,499,516,755.0,1,0,0,0,0,0,0,0,0,0
1038,499,516,755.0,1,0,0,0,0,0,0,0,0,0
1039,500,516,755.0,1,0,0,0,0,0,0,0,0,0
1040,500,516,755.0,1,0,0,0,0,0,0,0,0,0
1041,500,516,755.0,1,0,0,0,0,0,0,0,0,0
1042,500,516,755.0,1,0,0,0,0,0,0,0,0,0
1043,501,516,755.0,1,0,0,0,0,0,0,0,0,0
1044,501,515,755.0,1,0,0,0,0,0,0,0,0,0
1045,502,515,755.0,1,0,0,0,0,0,0,0,0,0
1046,502,514,755.0,1,0,0,0,0,0,0,0,0,0
1047,502,515,755.0,1,0,0,0,0,0,0,0,0,0
1048,503,515,755.0,1,0,0,0,0,0,0,0,0,0
1049,504,514,755.0,1,0,0,0,0,0,0,0,0,0
1050,504,515,755.0,1,0,0,0,0,0,0,0,0,0
1051,505,514,755.0,1,0,0,0,0,0,0,0,0,0
1052,505,514,755.0,1,0,0,0,0,0,0,0,0,0
1053,506,513,755.0,1,0,0,0,0,0,0,0,0,0
1054,507,512,755.0,1,0,0,0,0,0,0,0,0,0
1055,507,512,755.0,1,0,0,0,0,0,0,0,0,0
1056,507,511,755.0,1,0,0,0,0,0,0,0,0,0
1057,507,512,755.0,1,0,0,0,0,0,0,0,0,0
1058,508,513,755.0,1,0,0,0,0,0,0,0,0,0
1059,507,513,755.0,1,0,0,0,0,0,0,0,0,0
1060,507,513,755.0,1,0,0,0,0,0,0,0,0,0
1061,508,512,755.0,1,0,0,0,0,0,0,0,0,0
1062,508,512,755.0,1,0,0,0,0,0,0,0,0,0
1063,509,512,755.0,1,0,0,0,0,0,0,0,0,0
1064,508,512,755.0,1,0,0,0,0,0,0,0,0,0
1065,508,513,755.0,1,0,0,0,0,0,0,0,0,0
1066,508,513,755.0,1,0,0,0,0,0,0,0,0,0
1067,509,512,755.0,1,0,0,0,0,0,0,0,0,0
1068,509,513,755.0,1,0,0,0,0,0,0,0,0,0
1069,509,512,755.0,1,0,0,0,0,0,0,0,0,0
1070,509,511,755.0,1,0,0,0,0,0,0,0,0,0
1071,509,511,755.0,1,0,0,0,0,0,0,0,0,0
1072,509,512,755.0,1,0,0,0,0,0,0,0,0,0
1073,509,512,755.0,1,0,0,0,0,0,0,0,0,0
1074,508,512,755.0,1,0,0,0,0,0,0,0,0,0
1075,509,512,755.0,1,0,0,0,0,0,0,0,0,0
1076,509,512,755.0,1,0,0,0,0,0,0,0,0,0
1077,509,511,755.0,1,0,0,0,0,0,0,0,0,0
1078,508,511,755.0,1,0,0,0,0,0,0,0,0,0
1079,507,510,755.0,1,0,0,0,0,0,0,0,0,0
1080,508,510,755.0,1,0,0,0,0,0,0,0,0,0
1081,508,509,755.0,1,0,0,0,0,0,0,0,0,0
1082,507,509,755.0,1,0,0,0,0,0,0,0,0,0
1083,506,510,755.0,1,0,0,0,0,0,0,0,0,0
1084,507,511,755.0,1,0,0,0,0,0,0,0,0,0
1085,507,510,755.0,1,0,0,0,0,0,0,0,0,0
1086,507,510,755.0,1,0,0,0,0,0,0,0,0,0
1087,506,510,755.0,1,0,0,0,0,0,0,0,0,0
1088,506,510,755.0,1,0,0,0,0,0,0,0,0,0
1089,505,511,755.0,1,0,0,0,0,0,0,0,0,0
1090,505,511,755.0,1,0,0,0,0,0,0,0,0,0
1091,505,511,755.0,1,0,0,0,0,0,0,0,0,0
1092,505,510,755.0,1,0,0,0,0,0,0,0,0,0
1093,504,510,755.0,1,0,0,0,0,0,0,0,0,0
1094,504,510,755.0,1,0,0,0,0,0,0,0,0,0
1095,505,510,755.0,1,0,0,0,0,0,0,0,0,0
1096,505,510,755.0,1,0,0,0,0,0,0,0,0,0
1097,506,509,755.0,1,0,0,0,0,0,0,0,0,0
1098,506,509,755.0,1,0,0,0,0,0,0,0,0,0
1099,507,509,755.0,1,0,0,0,0,0,0,0,0,0
1100,507,509,755.0,1,0,0,0,0,0,0,0,0,0
1101,506,509,755.0,1,0,0,0,0,0,0,0,0,0
1102,506,509,755.0,1,0,0,0,0,0,0,0,0,0
1103,506,509,755.0,1,0,0,0,0,0,0,0,0,0
1104,507,509,755.0,1,0,0,0,0,0,0,0,0,0
1105,507,509,755.0,1,0,0,0,0,0,0,0,0,0
1106,507,509,755.0,1,0,0,0,0,0,0,0,0,0
1107,507,510,755.0,1,0,0,0,0,0,0,0,0,0
1108,507,510,755.0,1,0,0,0,0,0,0,0,0,0
1109,507,510,755.0,1,0,0,0,0,0,0,0,0,0
1110,507,509,755.0,1,0,0,0,0,0,0,0,0,0
1111,506,510,755.0,1,0,0,0,0,0,0,0,0,0
1112,506,510,755.0,1,0,0,0,0,0,0,0,0,0
1113,507,509,755.0,1,0,0,0,0,0,0,0,0,0
1114,508,508,755.0,1,0,0,0,0,0,0,0,0,0
1115,510,508,755.0,1,0,0,0,0,0,0,0,0,0
1116,511,508,755.0,1,0,0,0,0,0,0,0,0,0
1117,514,508,755.0,1,0,0,0,0,0,0,0,0,0
1118,518,507,755.0,1,0,0,0,0,0,0,0,0,0
1119,520,506,755.0,1,0,0,0,0,0,0,0,0,0
1120,520,506,755.0,1,0,0,0,0,0,0,0,0,0
1121,519,506,755.0,1,0,0,0,0,0,0,0,0,0
1122,517,505,755.0,1,0,0,0,0,0,0,0,0,0
1123,516,506,755.0,1,0,0,0,0,0,0,0,0,0
1124,515,507,755.0,1,0,0,0,0,0,0,0,0,0
1125,514,507,755.0,1,0,0,0,0,0,0,0,0,0
1126,512,507,755.0,1,0,0,0,0,0,0,0,0,0
1127,510,508,755.0,1,0,0,0,0,0,0,0,0,0
1128,508,510,755.0,1,0,0,0,0,0,0,0,0,0
1129,506,512,755.0,1,0,0,0,0,0,0,0,0,0
1130,505,512,755.0,1,0,0,0,0,0,0,0,0,0
1131,504,512,755.0,1,0,0,0,0,0,0,0,0,0
1132,504,511,755.0,1,0,0,0,0,0,0,0,0,0
1133,504,510,755.0,1,0,0,0,0,0,0,0,0,0
1134,504,510,755.0,1,0,0,0,0,0,0,0,0,0
1135,504,511,755.0,1,0,0,0,0,0,0,0,0,0
1136,504,511,755.0,1,0,0,0,0,0,0,0,0,0
1137,504,511,755.0,1,0,0,0,0,0,0,0,0,0
1138,504,511,755.0,1,0,0,0,0,0,0,0,0,0
1139,504,510,755.0,1,0,0,0,0,0,0,0,0,0
1140,505,509,755.0,1,0,0,0,0,0,0,0,0,0
1141,505,510,755.0,1,0,0,0,0,0,0,0,0,0
1142,504,510,755.0,1,0,0,0,0,0,0,0,0,0
1143,505,510,755.0,1,0,0,0,0,0,0,0,0,0
1144,510,510,755.0,1,0,0,0,0,0,0,0,0,0
1145,516,508,755.0,1,0,0,0,0,0,0,0,0,0
1146,525,504,755.0,1,0,0,0,0,0,0,0,0,0
1147,538,498,755.0,1,0,0,0,0,0,0,0,0,0
1148,556,491,755.0,1,0,0,0,0,0,0,0,0,0
1149,579,483,755.0,1,0,0,0,0,0,0,0,0,0
1150,602,476,755.0,1,0,0,0,0,0,0,0,0,0
1151,611,474,755.0,1,0,0,0,0,0,0,0,0,0
1152,601,479,756.0,1,0,0,0,0,0,0,0,0,0
1153,577,490,755.0,1,0,0,0,0,0,0,0,0,0
1154,550,503,755.0,1,0,0,0,0,0,0,0,0,0
1155,519,515,755.0,1,0,0,0,0,0,0,0,0,0
1156,494,522,755.0,1,0,0,0,0,0,0,0,0,0
1157,482,525,755.0,1,0,0,0,0,0,0,0,0,0
1158,472,526,755.0,1,0,0,0,0,0,0,0,0,0
1159,465,525,755.0,1,0,0,0,0,0,0,0,0,0
1160,463,524,755.0,1,0,0,0,0,0,0,0,0,0
1161,466,521,755.0,1,0,0,0,0,0,0,0,0,0
1162,475,518,755.0,1,0,0,0,0,0,0,0,0,0
1163,481,517,755.0,1,0,0,0,0,0,0,0,0,0
1164,485,515,755.0,1,0,0,0,0,0,0,0,0,0
1165,487,514,755.0,1,0,0,0,0,0,0,0,0,0
1166,487,512,755.0,1,0,0,0,0,0,0,0,0,0
1167,488,511,755.0,1,0,0,0,0,0,0,0,0,0
1168,489,512,755.0,1,0,0,0,0,0,0,0,0,0
1169,490,512,755.0,1,0,0,0,0,0,0,0,0,0
1170,491,512,755.0,1,0,0,0,0,0,0,0,0,0
1171,491,513,755.0,1,0,0,0,0,0,0,0,0,0
1172,492,513,755.0,1,0,0,0,0,0,0,0,0,0
1173,493,516,755.0,1,0,0,0,0,0,0,0,0,0
1174,494,517,755.0,1,0,0,0,0,0,0,0,0,0
1175,495,514,755.0,1,0,0,0,0,0,0,0,0,0
1176,495,512,755.0,1,0,0,0,0,0,0,0,0,0
1177,496,511,755.0,1,0,0,0,0,0,0,0,0,0
1178,498,510,755.0,1,0,0,0,0,0,0,0,0,0
1179,498,509,755.0,1,0,0,0,0,0,0,0,0,0
1180,499,507,755.0,1,0,0,0,0,0,0,0,0,0
1181,500,507,755.0,1,0,0,0,0,0,0,0,0,0
1182,501,507,755.0,1,0,0,0,0,0,0,0,0,0
1183,502,507,755.0,1,0,0,0,0,0,0,0,0,0
1184,502,508,755.0,1,0,0,0,0,0,0,0,0,0
1185,502,508,755.0,1,0,0,0,0,0,0,0,0,0
1186,502,508,755.0,1,0,0,0,0,0,0,0,0,0
1187,502,509,755.0,1,0,0,0,0,0,0,0,0,0
1188,503,510,755.0,1,0,0,0,0,0,0,0,0,0
1189,503,509,755.0,1,0,0,0,0,0,0,0,0,0
1190,504,509,755.0,1,0,0,0,0,0,0,0,0,0
1191,504,510,755.0,1,0,0,0,0,0,0,0,0,0
1192,505,512,755.0,1,0,0,0,0,0,0,0,0,0
1193,506,512,755.0,1,0,0,0,0,0,0,0,0,0
1194,507,512,755.0,1,0,0,0,0,0,0,0,0,0
1195,505,510,755.0,1,0,0,0,0,0,0,0,0,0
1196,505,510,755.0,1,0,0,0,0,0,0,0,0,0
1197,505,510,755.0,1,0,0,0,0,0,0,0,0,0
1198,507,510,755.0,1,0,0,0,0,0,0,0,0,0
1199,507,509,755.0,1,0,0,0,0,0,0,0,0,0
1200,508,507,755.0,1,0,0,0,0,0,0,0,0,0
1201,509,506,755.0,1,0,0,0,0,0,0,0,0,0
1202,509,508,755.0,1,0,0,0,0,0,0,0,0,0
1203,510,511,755.0,1,0,0,0,0,0,0,0,0,0
1204,511,511,755.0,1,0,0,0,0,0,0,0,0,0
1205,511,509,755.0,1,0,0,0,0,0,0,0,0,0
1206,511,508,755.0,1,0,0,0,0,0,0,0,0,0
1207,510,504,755.0,1,0,0,0,0,0,0,0,0,0
1208,510,504,755.0,1,0,0,0,0,0,0,0,0,0
1209,510,503,755.0,1,0,0,0,0,0,0,0,0,0
1210,511,505,756.0,1,0,0,0,0,0,0,0,0,0
1211,511,506,755.0,1,0,0,0,0,0,0,0,0,0
1212,510,506,755.0,1,0,0,0,0,0,0,0,0,0
1213,509,505,755.0,1,0,0,0,0,0,0,0,0,0
1214,511,507,755.0,1,0,0,0,0,0,0,0,0,0
1215,512,506,755.0,1,0,0,0,0,0,0,0,0,0
1216,511,503,755.0,1,0,0,0,0,0,0,0,0,0
1217,511,504,755.0,1,0,0,0,0,0,0,0,0,0
1218,511,504,755.0,1,0,0,0,0,0,0,0,0,0
1219,511,504,756.0,1,0,0,0,0,0,0,0,0,0
1220,510,506,755.0,1,0,0,0,0,0,0,0,0,0
1221,510,505,756.0,1,0,0,0,0,0,0,0,0,0
1222,512,506,755.0,1,0,0,0,0,0,0,0,0,0
1223,513,508,755.0,1,0,0,0,0,0,0,0,0,0
1224,513,509,755.0,1,0,0,0,0,0,0,0,0,0
1225,514,509,755.0,1,0,0,0,0,0,0,0,0,0
1226,513,512,755.0,1,0,0,0,0,0,0,0,0,0
1227,513,514,756.0,1,0,0,0,0,0,0,0,0,0
1228,512,512,755.0,1,0,0,0,0,0,0,0,0,0
1229,511,505,755.0,1,0,0,0,0,0,0,0,0,0
1230,511,502,755.0,1,0,0,0,0,0,0,0,0,0
1231,510,503,755.0,1,0,0,0,0,0,0,0,0,0
1232,511,505,756.0,1,0,0,0,0,0,0,0,0,0
1233,509,508,755.0,1,0,0,0,0,0,0,0,0,0
1234,508,509,755.0,1,0,0,0,0,0,0,0,0,0
1235,508,511,755.0,1,0,0,0,0,0,0,0,0,0
1236,508,511,755.0,1,0,0,0,0,0,0,0,0,0
1237,508,512,755.0,1,0,0,0,0,0,0,0,0,0
1238,508,514,755.0,1,0,0,0,0,0,0,0,0,0
1239,508,515,755.0,1,0,0,0,0,0,0,0,0,0
1240,507,516,755.0,1,0,0,0,0,0,0,0,0,0
1241,506,515,755.0,1,0,0,0,0,0,0,0,0,0
1242,508,516,755.0,1,0,0,0,0,0,0,0,0,0
1243,508,517,755.0,1,0,0,0,0,0,0,0,0,0
1244,507,519,755.0,1,0,0,0,0,0,0,0,0,0
1245,504,519,755.0,1,0,0,0,0,0,0,0,0,0
1246,503,519,755.0,1,0,0,0,0,0,0,0,0,0
1247,503,517,755.0,1,0,0,0,0,0,0,0,0,0
1248,503,517,755.0,1,0,0,0,0,0,0,0,0,0
1249,504,516,755.0,1,0,0,0,0,0,0,0,0,0
1250,503,513,755.0,1,0,0,0,0,0,0,0,0,0
1251,501,514,755.0,1,0,0,0,0,0,0,0,0,0
1252,500,515,755.0,1,0,0,0,0,0,0,0,0,0
1253,501,514,755.0,1,0,0,0,0,0,0,0,0,0
1254,504,513,755.0,1,0,0,0,0,0,0,0,0,0
1255,505,511,755.0,1,0,0,0,0,0,0,0,0,0
1256,506,511,755.0,1,0,0,0,0,0,0,0,0,0
1257,508,511,755.0,1,0,0,0,0,0,0,0,0,0
1258,508,510,755.0,1,0,0,0,0,0,0,0,0,0
1259,507,511,755.0,1,0,0,0,0,0,0,0,0,0
1260,506,512,755.0,1,0,0,0,0,0,0,0,0,0
1261,506,512,755.0,1,0,0,0,0,0,0,0,0,0
1262,506,511,755.0,1,0,0,0,0,0,0,0,0,0
1263,506,510,756.0,1,0,0,0,0,0,0,0,0,0
1264,506,511,755.0,1,0,0,0,0,0,0,0,0,0
1265,508,514,755.0,1,0,0,0,0,0,0,0,0,0
1266,509,515,755.0,1,0,0,0,0,0,0,0,0,0
1267,510,512,755.0,1,0,0,0,0,0,0,0,0,0
1268,510,509,755.0,1,0,0,0,0,0,0,0,0,0
1269,510,511,755.0,1,0,0,0,0,0,0,0,0,0
1270,510,513,755.0,1,0,0,0,0,0,0,0,0,0
1271,510,513,756.0,1,0,0,0,0,0,0,0,0,0
1272,510,512,755.0,1,0,0,0,0,0,0,0,0,0
1273,510,512,755.0,1,0,0,0,0,0,0,0,0,0
1274,510,511,755.0,1,0,0,0,0,0,0,0,0,0
1275,509,509,755.0,1,0,0,0,0,0,0,0,0,0
1276,510,509,755.0,1,0,0,0,0,0,0,0,0,0
1277,511,510,755.0,1,0,0,0,0,0,0,0,0,0
1278,512,509,756.0,1,0,0,0,0,0,0,0,0,0
1279,513,507,756.0,1,0,0,0,0,0,0,0,0,0
1280,513,507,756.0,1,0,0,0,0,0,0,0,0,0
1281,512,508,755.0,1,0,0,0,0,0,0,0,0,0
1282,512,507,755.0,1,0,0,0,0,0,0,0,0,0
1283,511,506,755.0,1,0,0,0,0,0,0,0,0,0
1284,511,506,755.0,1,0,0,0,0,0,0,0,0,0
1285,512,505,755.0,1,0,0,0,0,0,0,0,0,0
1286,512,505,756.0,1,0,0,0,0,0,0,0,0,0
1287,511,504,755.0,1,0,0,0,0,0,0,0,0,0
1288,512,505,755.0,1,0,0,0,0,0,0,0,0,0
1289,512,507,755.0,1,0,0,0,0,0,0,0,0,0
1290,510,507,756.0,1,0,0,0,0,0,0,0,0,0
1291,510,507,755.0,1,0,0,0,0,0,0,0,0,0
1292,510,507,756.0,1,0,0,0,0,0,0,0,0,0
1293,512,508,756.0,1,0,0,0,0,0,0,0,0,0
1294,511,507,756.0,1,0,0,0,0,0,0,0,0,0
1295,510,506,756.0,1,0,0,0,0,0,0,0,0,0
1296,510,507,756.0,1,0,0,0,0,0,0,0,0,0
1297,509,508,756.0,1,0,0,0,0,0,0,0,0,0
1298,507,508,756.0,1,0,0,0,0,0,0,0,0,0
1299,507,508,756.0,1,0,0,0,0,0,0,0,0,0
1300,507,509,756.0,1,0,0,0,0,0,0,0,0,0
1301,508,511,755.0,1,0,0,0,0,0,0,0,0,0
1302,507,509,756.0,1,0,0,0,0,0,0,0,0,0
1303,508,508,756.0,1,0,0,0,0,0,0,0,0,0
1304,509,507,756.0,1,0,0,0,0,0,0,0,0,0
1305,507,508,756.0,1,0,0,0,0,0,0,0,0,0
1306,505,508,756.0,1,0,0,0,0,0,0,0,0,0
1307,506,509,755.0,1,0,0,0,0,0,0,0,0,0
1308,508,511,756.0,1,0,0,0,0,0,0,0,0,0
1309,509,511,755.0,1,0,0,0,0,0,0,0,0,0
1310,507,511,756.0,1,0,0,0,0,0,0,0,0,0
1311,506,510,755.0,1,0,0,0,0,0,0,0,0,0
1312,507,513,756.0,1,0,0,0,0,0,0,0,0,0
1313,507,513,755.0,1,0,0,0,0,0,0,0,0,0
1314,508,512,756.0,1,0,0,0,0,0,0,0,0,0
1315,507,513,755.0,1,0,0,0,0,0,0,0,0,0
1316,507,515,756.0,1,0,0,0,0,0,0,0,0,0
1317,507,515,755.0,1,0,0,0,0,0,0,0,0,0
1318,509,512,756.0,1,0,0,0,0,0,0,0,0,0
1319,510,510,756.0,1,0,0,0,0,0,0,0,0,0
1320,510,510,756.0,1,0,0,0,0,0,0,0,0,0
1321,508,510,756.0,1,0,0,0,0,0,0,0,0,0
1322,509,510,756.0,1,0,0,0,0,0,0,0,0,0
1323,510,510,756.0,1,0,0,0,0,0,0,0,0,0
1324,511,510,756.0,1,0,0,0,0,0,0,0,0,0
1325,508,512,755.0,1,0,0,0,0,0,0,0,0,0
1326,507,515,756.0,1,0,0,0,0,0,0,0,0,0
1327,511,513,755.0,1,0,0,0,0,0,0,0,0,0
1328,515,510,756.0,1,0,0,0,0,0,0,0,0,0
1329,518,510,755.0,1,0,0,0,0,0,0,0,0,0
1330,519,512,756.0,1,0,0,0,0,0,0,0,0,0
1331,519,512,756.0,1,0,0,0,0,0,0,0,0,0
1332,521,509,756.0,1,0,0,0,0,0,0,0,0,0
1333,521,509,756.0,1,0,0,0,0,0,0,0,0,0
1334,519,508,756.0,1,0,0,0,0,0,0,0,0,0
1335,517,508,756.0,1,0,0,0,0,0,0,0,0,0
1336,513,511,756.0,1,0,0,0,0,0,0,0,0,0
1337,512,511,756.0,1,0,0,0,0,0,0,0,0,0
1338,512,511,756.0,1,0,0,0,0,0,0,0,0,0
1339,509,513,756.0,1,0,0,0,0,0,0,0,0,0
1340,507,514,756.0,1,0,0,0,0,0,0,0,0,0
1341,508,513,756.0,1,0,0,0,0,0,0,0,0,0
1342,508,511,756.0,1,0,0,0,0,0,0,0,0,0
1343,508,508,756.0,1,0,0,0,0,0,0,0,0,0
1344,508,508,756.0,1,0,0,0,0,0,0,0,0,0
1345,506,510,756.0,1,0,0,0,0,0,0,0,0,0
1346,504,512,756.0,1,0,0,0,0,0,0,0,0,0
1347,504,512,756.0,1,0,0,0,0,0,0,0,0,0
1348,505,514,756.0,1,0,0,0,0,0,0,0,0,0
1349,507,513,756.0,1,0,0,0,0,0,0,0,0,0
1350,508,514,756.0,1,0,0,0,0,0,0,0,0,0
1351,507,513,756.0,1,0,0,0,0,0,0,0,0,0
1352,506,511,756.0,1,0,0,0,0,0,0,0,0,0
1353,508,510,756.0,1,0,0,0,0,0,0,0,0,0
1354,507,510,756.0,1,0,0,0,0,0,0,0,0,0
1355,508,511,756.0,1,0,0,0,0,0,0,0,0,0
1356,513,509,756.0,1,0,0,0,0,0,0,0,0,0
1357,521,509,756.0,1,0,0,0,0,0,0,0,0,0
1358,532,506,756.0,1,0,0,0,0,0,0,0,0,0
1359,551,502,756.0,1,0,0,0,0,0,0,0,0,0
1360,574,497,756.0,1,0,0,0,0,0,0,0,0,0
1361,596,490,756.0,1,0,0,0,0,0,0,0,0,0
1362,617,486,756.0,1,0,0,0,0,0,0,0,0,0
1363,618,487,756.0,1,0,0,0,0,0,0,0,0,0
1364,602,492,756.0,1,0,0,0,0,0,0,0,0,0
1365,574,502,756.0,1,0,0,0,0,0,0,0,0,0
1366,544,512,756.0,1,0,0,0,0,0,0,0,0,0
1367,517,519,756.0,1,0,0,0,0,0,0,0,0,0
1368,500,522,756.0,1,0,0,0,0,0,0,0,0,0
1369,489,523,756.0,1,0,0,0,0,0,0,0,0,0
1370,477,524,756.0,1,0,0,0,0,0,0,0,0,0
1371,469,523,756.0,1,0,0,0,0,0,0,0,0,0
1372,466,520,756.0,1,0,0,0,0,0,0,0,0,0
1373,470,517,756.0,1,0,0,0,0,0,0,0,0,0
1374,479,516,756.0,1,0,0,0,0,0,0,0,0,0
1375,485,511,756.0,1,0,0,0,0,0,0,0,0,0
1376,487,510,756.0,1,0,0,0,0,0,0,0,0,0
1377,488,514,756.0,1,0,0,0,0,0,0,0,0,0
1378,491,516,756.0,1,0,0,0,0,0,0,0,0,0
1379,493,516,756.0,1,0,0,0,0,0,0,0,0,0
1380,489,515,756.0,1,0,0,0,0,0,0,0,0,0
1381,488,516,756.0,1,0,0,0,0,0,0,0,0,0
1382,490,517,756.0,1,0,0,0,0,0,0,0,0,0
1383,493,517,756.0,1,0,0,0,0,0,0,0,0,0
1384,496,516,756.0,1,0,0,0,0,0,0,0,0,0
1385,497,515,756.0,1,0,0,0,0,0,0,0,0,0
1386,499,515,756.0,1,0,0,0,0,0,0,0,0,0
1387,499,512,756.0,1,0,0,0,0,0,0,0,0,0
1388,496,512,756.0,1,0,0,0,0,0,0,0,0,0
1389,497,512,756.0,1,0,0,0,0,0,0,0,0,0
1390,501,513,756.0,1,0,0,0,0,0,0,0,0,0
1391,503,514,756.0,1,0,0,0,0,0,0,0,0,0
1392,504,513,756.0,1,0,0,0,0,0,0,0,0,0
1393,502,515,756.0,1,0,0,0,0,0,0,0,0,0
1394,502,512,756.0,1,0,0,0,0,0,0,0,0,0
1395,503,508,756.0,1,0,0,0,0,0,0,0,0,0
1396,506,509,756.0,1,0,0,0,0,0,0,0,0,0
1397,510,510,756.0,1,0,0,0,0,0,0,0,0,0
1398,510,512,756.0,1,0,0,0,0,0,0,0,0,0
1399,508,511,756.0,1,0,0,0,0,0,0,0,0,0
1400,507,509,756.0,1,0,0,0,0,0,0,0,0,0
1401,508,507,756.0,1,0,0,0,0,0,0,0,0,0
1402,510,508,756.0,1,0,0,0,0,0,0,0,0,0
1403,508,510,756.0,1,0,0,0,0,0,0,0,0,0
1404,508,509,756.0,1,0,0,0,0,0,0,0,0,0
1405,510,509,756.0,1,0,0,0,0,0,0,0,0,0
1406,510,508,756.0,1,0,0,0,0,0,0,0,0,0
1407,512,507,756.0,1,0,0,0,0,0,0,0,0,0
1408,513,510,756.0,1,0,0,0,0,0,0,0,0,0
1409,514,513,756.0,1,0,0,0,0,0,0,0,0,0
1410,511,512,756.0,1,0,0,0,0,0,0,0,0,0
1411,511,512,756.0,1,0,0,0,0,0,0,0,0,0
1412,515,512,756.0,1,0,0,0,0,0,0,0,0,0
1413,516,512,756.0,1,0,0,0,0,0,0,0,0,0
1414,514,510,756.0,1,0,0,0,0,0,0,0,0,0
1415,513,510,756.0,1,0,0,0,0,0,0,0,0,0
1416,515,507,756.0,1,0,0,0,0,0,0,0,0,0
1417,515,504,756.0,1,0,0,0,0,0,0,0,0,0
1418,513,505,756.0,1,0,0,0,0,0,0,0,0,0
1419,511,508,756.0,1,0,0,0,0,0,0,0,0,0
1420,512,511,756.0,1,0,0,0,0,0,0,0,0,0
1421,513,509,756.0,1,0,0,0,0,0,0,0,0,0
1422,513,505,756.0,1,0,0,0,0,0,0,0,0,0
1423,512,504,756.0,1,0,0,0,0,0,0,0,0,0
1424,514,507,756.0,1,0,0,0,0,0,0,0,0,0
1425,518,513,756.0,1,0,0,0,0,0,0,0,0,0
1426,515,510,756.0,1,0,0,0,0,0,0,0,0,0
1427,512,508,756.0,1,0,0,0,0,0,0,0,0,0
1428,515,507,756.0,1,0,0,0,0,0,0,0,0,0
1429,516,510,756.0,1,0,0,0,0,0,0,0,0,0
1430,514,508,756.0,1,0,0,0,0,0,0,0,0,0
1431,516,507,756.0,1,0,0,0,0,0,0,0,0,0
1432,519,505,756.0,1,0,0,0,0,0,0,0,0,0
1433,518,507,756.0,1,0,0,0,0,0,0,0,0,0
1434,512,508,756.0,1,0,0,0,0,0,0,0,0,0
1435,510,506,756.0,1,0,0,0,0,0,0,0,0,0
1436,510,508,756.0,1,0,0,0,0,0,0,0,0,0
1437,510,510,756.0,1,0,0,0,0,0,0,0,0,0
1438,510,514,756.0,1,0,0,0,0,0,0,0,0,0
1439,509,515,756.0,1,0,0,0,0,0,0,0,0,0
1440,510,513,756.0,1,0,0,0,0,0,0,0,0,0
1441,509,512,756.0,1,0,0,0,0,0,0,0,0,0
1442,505,514,756.0,1,0,0,0,0,0,0,0,0,0
1443,503,517,756.0,1,0,0,0,0,0,0,0,0,0
1444,506,516,756.0,1,0,0,0,0,0,0,0,0,0
1445,509,513,756.0,1,0,0,0,0,0,0,0,0,0
1446,509,510,756.0,1,0,0,0,0,0,0,0,0,0
1447,508,508,756.0,1,0,0,0,0,0,0,0,0,0
1448,509,511,756.0,1,0,0,0,0,0,0,0,0,0
1449,509,516,756.0,1,0,0,0,0,0,0,0,0,0
1450,506,515,756.0,1,0,0,0,0,0,0,0,0,0
1451,503,516,756.0,1,0,0,0,0,0,0,0,0,0
1452,504,515,756.0,1,0,0,0,0,0,0,0,0,0
1453,509,515,756.0,1,0,0,0,0,0,0,0,0,0
1454,507,515,756.0,1,0,0,0,0,0,0,0,0,0
1455,505,515,756.0,1,0,0,0,0,0,0,0,0,0
1456,506,513,756.0,1,0,0,0,0,0,0,0,0,0
1457,503,516,756.0,1,0,0,0,0,0,0,0,0,0
1458,500,517,756.0,1,0,0,0,0,0,0,0,0,0
1459,501,514,756.0,1,0,0,0,0,0,0,0,0,0
1460,500,515,756.0,1,0,0,0,0,0,0,0,0,0
1461,503,513,756.0,1,0,0,0,0,0,0,0,0,0
1462,505,513,756.0,1,0,0,0,0,0,0,0,0,0
1463,506,517,756.0,1,0,0,0,0,0,0,0,0,0
1464,507,516,756.0,1,0,0,0,0,0,0,0,0,0
1465,504,515,756.0,1,0,0,0,0,0,0,0,0,0
1466,499,512,756.0,1,0,0,0,0,0,0,0,0,0
1467,503,511,756.0,1,0,0,0,0,0,0,0,0,0
1468,509,511,756.0,1,0,0,0,0,0,0,0,0,0
1469,507,511,757.0,1,0,0,0,0,0,0,0,0,0
1470,503,511,756.0,1,0,0,0,0,0,0,0,0,0
1471,505,514,756.0,1,0,0,0,0,0,0,0,0,0
1472,506,517,756.0,1,0,0,0,0,0,0,0,0,0
1473,508,517,756.0,1,0,0,0,0,0,0,0,0,0
1474,510,508,756.0,1,0,0,0,0,0,0,0,0,0
1475,509,504,756.0,1,0,0,0,0,0,0,0,0,0
1476,509,508,756.0,1,0,0,0,0,0,0,0,0,0
1477,509,511,756.0,1,0,0,0,0,0,0,0,0,0
1478,507,516,757.0,1,0,0,0,0,0,0,0,0,0
1479,508,516,756.0,1,0,0,0,0,0,0,0,0,0
1480,507,511,757.0,1,0,0,0,0,0,0,0,0,0
1481,508,508,756.0,1,0,0,0,0,0,0,0,0,0
1482,510,507,756.0,1,0,0,0,0,0,0,0,0,0
1483,510,506,757.0,1,0,0,0,0,0,0,0,0,0
1484,508,504,756.0,1,0,0,0,0,0,0,0,0,0
1485,508,506,756.0,1,0,0,0,0,0,0,0,0,0
1486,508,510,757.0,1,0,0,0,0,0,0,0,0,0
1487,508,512,757.0,1,0,0,0,0,0,0,0,0,0
1488,507,515,757.0,1,0,0,0,0,0,0,0,0,0
1489,507,515,757.0,1,0,0,0,0,0,0,0,0,0
1490,509,512,757.0,1,0,0,0,0,0,0,0,0,0
1491,510,510,756.0,1,0,0,0,0,0,0,0,0,0
1492,510,509,757.0,1,0,0,0,0,0,0,0,0,0
1493,509,505,757.0,1,0,0,0,0,0,0,0,0,0
1494,511,500,757.0,1,0,0,0,0,0,0,0,0,0
1495,513,500,757.0,1,0,0,0,0,0,0,0,0,0
1496,511,506,757.0,1,0,0,0,0,0,0,0,0,0
1497,508,511,757.0,1,0,0,0,0,0,0,0,0,0
1498,511,514,757.0,1,0,0,0,0,0,0,0,0,0
1499,509,515,757.0,1,0,0,0,0,0,0,0,0,0
1500,508,517,757.0,1,0,0,0,0,0,0,0,0,0
1501,509,520,757.0,1,0,0,0,0,0,0,0,0,0
1502,511,518,757.0,1,0,0,0,0,0,0,0,0,0
1503,510,509,757.0,1,0,0,0,0,0,0,0,0,0
1504,509,506,757.0,1,0,0,0,0,0,0,0,0,0
1505,510,507,757.0,1,0,0,0,0,0,0,0,0,0
1506,509,508,757.0,1,0,0,0,0,0,0,0,0,0
1507,509,507,757.0,1,0,0,0,0,0,0,0,0,0
1508,509,507,757.0,1,0,0,0,0,0,0,0,0,0
1509,509,506,757.0,1,0,0,0,0,0,0,0,0,0
1510,508,503,757.0,1,0,0,0,0,0,0,0,0,0
1511,506,505,757.0,1,0,0,0,0,0,0,0,0,0
1512,507,509,757.0,1,0,0,0,0,0,0,0,0,0
1513,509,514,757.0,1,0,0,0,0,0,0,0,0,0
1514,510,518,757.0,1,0,0,0,0,0,0,0,0,0
1515,507,519,756.0,1,0,0,0,0,0,0,0,0,0
1516,504,510,757.0,1,0,0,0,0,0,0,0,0,0
1517,506,511,757.0,1,0,0,0,0,0,0,0,0,0
1518,509,514,757.0,1,0,0,0,0,0,0,0,0,0
1519,508,511,757.0,1,0,0,0,0,0,0,0,0,0
1520,506,509,757.0,1,0,0,0,0,0,0,0,0,0
1521,505,508,757.0,1,0,0,0,0,0,0,0,0,0
1522,507,509,757.0,1,0,0,0,0,0,0,0,0,0
1523,511,511,757.0,1,0,0,0,0,0,0,0,0,0
1524,510,511,757.0,1,0,0,0,0,0,0,0,0,0
1525,508,506,757.0,1,0,0,0,0,0,0,0,0,0
1526,508,508,757.0,1,0,0,0,0,0,0,0,0,0
1527,506,516,757.0,1,0,0,0,0,0,0,0,0,0
1528,505,513,757.0,1,0,0,0,0,0,0,0,0,0
1529,506,511,757.0,1,0,0,0,0,0,0,0,0,0
1530,506,510,757.0,1,0,0,0,0,0,0,0,0,0
1531,506,507,757.0,1,0,0,0,0,0,0,0,0,0
1532,507,508,757.0,1,0,0,0,0,0,0,0,0,0
1533,506,512,757.0,1,0,0,0,0,0,0,0,0,0
1534,506,515,757.0,1,0,0,0,0,0,0,0,0,0
1535,508,512,757.0,1,0,0,0,0,0,0,0,0,0
1536,509,508,757.0,1,0,0,0,0,0,0,0,0,0
1537,507,506,757.0,1,0,0,0,0,0,0,0,0,0
1538,507,506,757.0,1,0,0,0,0,0,0,0,0,0
1539,509,506,757.0,1,0,0,0,0,0,0,0,0,0
1540,511,508,757.0,1,0,0,0,0,0,0,0,0,0
1541,514,511,757.0,1,0,0,0,0,0,0,0,0,0
1542,521,510,757.0,1,0,0,0,0,0,0,0,0,0
1543,522,510,757.0,1,0,0,0,0,0,0,0,0,0
1544,518,510,757.0,1,0,0,0,0,0,0,0,0,0
1545,514,508,757.0,1,0,0,0,0,0,0,0,0,0
1546,515,514,757.0,1,0,0,0,0,0,0,0,0,0
1547,517,514,757.0,1,0,0,0,0,0,0,0,0,0
1548,517,513,757.0,1,0,0,0,0,0,0,0,0,0
1549,513,513,757.0,1,0,0,0,0,0,0,0,0,0
1550,512,515,757.0,1,0,0,0,0,0,0,0,0,0
1551,512,514,757.0,1,0,0,0,0,0,0,0,0,0
1552,510,515,757.0,1,0,0,0,0,0,0,0,0,0
1553,507,515,757.0,1,0,0,0,0,0,0,0,0,0
1554,506,511,757.0,1,0,0,0,0,0,0,0,0,0
1555,505,505,757.0,1,0,0,0,0,0,0,0,0,0
1556,502,503,757.0,1,0,0,0,0,0,0,0,0,0
1557,501,504,757.0,1,0,0,0,0,0,0,0,0,0
1558,501,506,757.0,1,0,0,0,0,0,0,0,0,0
1559,503,509,757.0,1,0,0,0,0,0,0,0,0,0
1560,503,511,757.0,1,0,0,0,0,0,0,0,0,0
1561,502,513,757.0,1,0,0,0,0,0,0,0,0,0
1562,505,514,757.0,1,0,0,0,0,0,0,0,0,0
1563,505,518,757.0,1,0,0,0,0,0,0,0,0,0
1564,504,519,757.0,1,0,0,0,0,0,0,0,0,0
1565,505,515,757.0,1,0,0,0,0,0,0,0,0,0
1566,505,510,757.0,1,0,0,0,0,0,0,0,0,0
1567,507,508,757.0,1,0,0,0,0,0,0,0,0,0
1568,510,509,757.0,1,0,0,0,0,0,0,0,0,0
1569,516,512,757.0,1,0,0,0,0,0,0,0,0,0
1570,525,511,757.0,1,0,0,0,0,0,0,0,0,0
1571,539,503,757.0,1,0,0,0,0,0,0,0,0,0
1572,558,502,757.0,1,0,0,0,0,0,0,0,0,0
1573,583,500,757.0,1,0,0,0,0,0,0,0,0,0
1574,607,495,757.0,1,0,0,0,0,0,0,0,0,0
1575,622,487,757.0,1,0,0,0,0,0,0,0,0,0
1576,614,487,757.0,1,0,0,0,0,0,0,0,0,0
1577,590,495,757.0,1,0,0,0,0,0,0,0,0,0
1578,560,506,757.0,1,0,0,0,0,0,0,0,0,0
1579,529,515,757.0,1,0,0,0,0,0,0,0,0,0
1580,504,522,757.0,1,0,0,0,0,0,0,0,0,0
1581,493,525,757.0,1,0,0,0,0,0,0,0,0,0
1582,483,524,757.0,1,0,0,0,0,0,0,0,0,0
1583,472,518,757.0,1,0,0,0,0,0,0,0,0,0
1584,466,515,757.0,1,0,0,0,0,0,0,0,0,0
1585,466,515,757.0,1,0,0,0,0,0,0,0,0,0
1586,470,514,757.0,1,0,0,0,0,0,0,0,0,0
1587,478,514,757.0,1,0,0,0,0,0,0,0,0,0
1588,484,514,757.0,1,0,0,0,0,0,0,0,0,0
1589,489,511,757.0,1,0,0,0,0,0,0,0,0,0
1590,492,509,757.0,1,0,0,0,0,0,0,0,0,0
1591,489,510,757.0,1,0,0,0,0,0,0,0,0,0
1592,484,512,757.0,1,0,0,0,0,0,0,0,0,0
1593,482,512,757.0,1,0,0,0,0,0,0,0,0,0
1594,484,512,757.0,1,0,0,0,0,0,0,0,0,0
1595,485,512,757.0,1,0,0,0,0,0,0,0,0,0
1596,486,513,757.0,1,0,0,0,0,0,0,0,0,0
1597,490,513,757.0,1,0,0,0,0,0,0,0,0,0
1598,492,511,757.0,1,0,0,0,0,0,0,0,0,0
1599,490,510,757.0,1,0,0,0,0,0,0,0,0,0
1600,489,508,757.0,1,0,0,0,0,0,0,0,0,0
1601,489,510,757.0,1,0,0,0,0,0,0,0,0,0
1602,493,509,757.0,1,0,0,0,0,0,0,0,0,0
1603,495,511,757.0,1,0,0,0,0,0,0,0,0,0
1604,498,512,757.0,1,0,0,0,0,0,0,0,0,0
1605,499,508,757.0,1,0,0,0,0,0,0,0,0,0
1606,495,505,757.0,1,0,0,0,0,0,0,0,0,0
1607,494,503,757.0,1,0,0,0,0,0,0,0,0,0
1608,495,506,757.0,1,0,0,0,0,0,0,0,0,0
1609,501,511,757.0,1,0,0,0,0,0,0,0,0,0
1610,504,511,757.0,1,0,0,0,0,0,0,0,0,0
1611,506,513,757.0,1,0,0,0,0,0,0,0,0,0
1612,509,513,757.0,1,0,0,0,0,0,0,0,0,0
1613,509,514,757.0,1,0,0,0,0,0,0,0,0,0
1614,508,514,757.0,1,0,0,0,0,0,0,0,0,0
1615,507,510,757.0,1,0,0,0,0,0,0,0,0,0
1616,505,509,757.0,1,0,0,0,0,0,0,0,0,0
1617,501,511,757.0,1,0,0,0,0,0,0,0,0,0
1618,496,508,757.0,1,0,0,0,0,0,0,0,0,0
1619,498,507,757.0,1,0,0,0,0,0,0,0,0,0
1620,503,508,757.0,1,0,0,0,0,0,0,0,0,0
1621,508,512,757.0,1,0,0,0,0,0,0,0,0,0
1622,510,514,757.0,1,0,0,0,0,0,0,0,0,0
1623,510,514,757.0,1,0,0,0,0,0,0,0,0,0
1624,509,511,757.0,1,0,0,0,0,0,0,0,0,0
1625,508,508,757.0,1,0,0,0,0,0,0,0,0,0
1626,513,507,757.0,1,0,0,0,0,0,0,0,0,0
1627,514,506,757.0,1,0,0,0,0,0,0,0,0,0
1628,515,507,757.0,1,0,0,0,0,0,0,0,0,0
1629,513,509,757.0,1,0,0,0,0,0,0,0,0,0
1630,520,510,757.0,1,0,0,0,0,0,0,0,0,0
1631,533,509,757.0,1,0,0,0,0,0,0,0,0,0
1632,532,509,757.0,1,0,0,0,0,0,0,0,0,0
1633,515,509,757.0,1,0,0,0,0,0,0,0,0,0
1634,504,511,757.0,1,0,0,0,0,0,0,0,0,0
1635,506,512,757.0,1,0,0,0,0,0,0,0,0,0
1636,508,510,757.0,1,0,0,0,0,0,0,0,0,0
1637,504,510,757.0,1,0,0,0,0,0,0,0,0,0
1638,504,511,757.0,1,0,0,0,0,0,0,0,0,0
1639,510,511,757.0,1,0,0,0,0,0,0,0,0,0
1640,514,509,757.0,1,0,0,0,0,0,0,0,0,0
1641,514,509,757.0,1,0,0,0,0,0,0,0,0,0
1642,518,510,757.0,1,0,0,0,0,0,0,0,0,0
1643,515,507,757.0,1,0,0,0,0,0,0,0,0,0
1644,512,505,757.0,1,0,0,0,0,0,0,0,0,0
1645,512,506,757.0,1,0,0,0,0,0,0,0,0,0
1646,513,508,757.0,1,0,0,0,0,0,0,0,0,0
1647,521,509,757.0,1,0,0,0,0,0,0,0,0,0
1648,528,513,757.0,1,0,0,0,0,0,0,0,0,0
1649,529,517,757.0,1,0,0,0,0,0,0,0,0,0
1650,523,514,757.0,1,0,0,0,0,0,0,0,0,0
1651,517,507,757.0,1,0,0,0,0,0,0,0,0,0
1652,509,504,757.0,1,0,0,0,0,0,0,0,0,0
1653,503,501,757.0,1,0,0,0,0,0,0,0,0,0
1654,500,504,757.0,1,0,0,0,0,0,0,0,0,0
1655,500,508,757.0,1,0,0,0,0,0,0,0,0,0
1656,510,511,757.0,1,0,0,0,0,0,0,0,0,0
1657,514,516,757.0,1,0,0,0,0,0,0,0,0,0
1658,514,516,757.0,1,0,0,0,0,0,0,0,0,0
1659,509,517,757.0,1,0,0,0,0,0,0,0,0,0
1660,505,518,757.0,1,0,0,0,0,0,0,0,0,0
1661,503,516,757.0,1,0,0,0,0,0,0,0,0,0
1662,501,514,757.0,1,0,0,0,0,0,0,0,0,0
1663,504,515,757.0,1,0,0,0,0,0,0,0,0,0
1664,507,515,757.0,1,0,0,0,0,0,0,0,0,0
1665,506,514,757.0,1,0,0,0,0,0,0,0,0,0
1666,501,516,757.0,1,0,0,0,0,0,0,0,0,0
1667,498,515,757.0,1,0,0,0,0,0,0,0,0,0
1668,503,516,757.0,1,0,0,0,0,0,0,0,0,0
1669,505,515,757.0,1,0,0,0,0,0,0,0,0,0
1670,508,511,757.0,1,0,0,0,0,0,0,0,0,0
1671,510,512,757.0,1,0,0,0,0,0,0,0,0,0
1672,509,514,757.0,1,0,0,0,0,0,0,0,0,0
1673,501,513,757.0,1,0,0,0,0,0,0,0,0,0
1674,498,514,757.0,1,0,0,0,0,0,0,0,0,0
1675,500,517,757.0,1,0,0,0,0,0,0,0,0,0
1676,502,514,757.0,1,0,0,0,0,0,0,0,0,0
1677,503,510,757.0,1,0,0,0,0,0,0,0,0,0
1678,505,513,757.0,1,0,0,0,0,0,0,0,0,0
1679,504,512,757.0,1,0,0,0,0,0,0,0,0,0
1680,501,512,757.0,1,0,0,0,0,0,0,0,0,0
1681,502,512,757.0,1,0,0,0,0,0,0,0,0,0
1682,499,514,757.0,1,0,0,0,0,0,0,0,0,0
1683,494,516,757.0,1,0,0,0,0,0,0,0,0,0
1684,493,515,757.0,1,0,0,0,0,0,0,0,0,0
1685,499,516,757.0,1,0,0,0,0,0,0,0,0,0
1686,505,516,757.0,1,0,0,0,0,0,0,0,0,0
1687,508,517,757.0,1,0,0,0,0,0,0,0,0,0
1688,505,515,757.0,1,0,0,0,0,0,0,0,0,0
1689,502,517,757.0,1,0,0,0,0,0,0,0,0,0
1690,503,518,757.0,1,0,0,0,0,0,0,0,0,0
1691,506,517,757.0,1,0,0,0,0,0,0,0,0,0
1692,512,514,757.0,1,0,0,0,0,0,0,0,0,0
1693,514,508,757.0,1,0,0,0,0,0,0,0,0,0
1694,509,506,757.0,1,0,0,0,0,0,0,0,0,0
1695,509,507,757.0,1,0,0,0,0,0,0,0,0,0
1696,510,509,757.0,1,0,0,0,0,0,0,0,0,0
1697,510,510,757.0,1,0,0,0,0,0,0,0,0,0
1698,506,511,757.0,1,0,0,0,0,0,0,0,0,0
1699,503,511,758.0,1,0,0,0,0,0,0,0,0,0
1700,508,508,757.0,1,0,0,0,0,0,0,0,0,0
1701,514,506,757.0,1,0,0,0,0,0,0,0,0,0
1702,517,506,758.0,1,0,0,0,0,0,0,0,0,0
1703,515,512,758.0,1,0,0,0,0,0,0,0,0,0
1704,512,516,757.0,1,0,0,0,0,0,0,0,0,0
1705,508,516,757.0,1,0,0,0,0,0,0,0,0,0
1706,508,516,757.0,1,0,0,0,0,0,0,0,0,0
1707,508,517,757.0,1,0,0,0,0,0,0,0,0,0
1708,507,516,758.0,1,0,0,0,0,0,0,0,0,0
1709,505,513,757.0,1,0,0,0,0,0,0,0,0,0
1710,504,507,758.0,1,0,0,0,0,0,0,0,0,0
1711,508,502,758.0,1,0,0,0,0,0,0,0,0,0
1712,509,500,757.0,1,0,0,0,0,0,0,0,0,0
1713,508,506,757.0,1,0,0,0,0,0,0,0,0,0
1714,508,507,758.0,1,0,0,0,0,0,0,0,0,0
1715,510,509,758.0,1,0,0,0,0,0,0,0,0,0
1716,512,513,757.0,1,0,0,0,0,0,0,0,0,0
1717,511,517,757.0,1,0,0,0,0,0,0,0,0,0
1718,513,518,758.0,1,0,0,0,0,0,0,0,0,0
1719,517,510,757.0,1,0,0,0,0,0,0,0,0,0
1720,515,507,758.0,1,0,0,0,0,0,0,0,0,0
1721,517,510,758.0,1,0,0,0,0,0,0,0,0,0
1722,519,512,758.0,1,0,0,0,0,0,0,0,0,0
1723,513,510,757.0,1,0,0,0,0,0,0,0,0,0
1724,516,510,757.0,1,0,0,0,0,0,0,0,0,0
1725,525,510,758.0,1,0,0,0,0,0,0,0,0,0
1726,517,510,758.0,1,0,0,0,0,0,0,0,0,0
1727,498,509,758.0,1,0,0,0,0,0,0,0,0,0
1728,488,509,758.0,1,0,0,0,0,0,0,0,0,0
1729,493,512,758.0,1,0,0,0,0,0,0,0,0,0
1730,499,513,758.0,1,0,0,0,0,0,0,0,0,0
1731,499,507,757.0,1,0,0,0,0,0,0,0,0,0
1732,502,503,758.0,1,0,0,0,0,0,0,0,0,0
1733,513,502,758.0,1,0,0,0,0,0,0,0,0,0
1734,515,503,758.0,1,0,0,0,0,0,0,0,0,0
1735,510,505,757.0,1,0,0,0,0,0,0,0,0,0
1736,510,508,758.0,1,0,0,0,0,0,0,0,0,0
1737,512,510,758.0,1,0,0,0,0,0,0,0,0,0
1738,514,510,758.0,1,0,0,0,0,0,0,0,0,0
1739,509,511,758.0,1,0,0,0,0,0,0,0,0,0
1740,504,515,758.0,1,0,0,0,0,0,0,0,0,0
1741,507,516,758.0,1,0,0,0,0,0,0,0,0,0
1742,508,512,758.0,1,0,0,0,0,0,0,0,0,0
1743,504,508,758.0,1,0,0,0,0,0,0,0,0,0
1744,500,504,758.0,1,0,0,0,0,0,0,0,0,0
1745,501,503,758.0,1,0,0,0,0,0,0,0,0,0
1746,500,502,758.0,1,0,0,0,0,0,0,0,0,0
1747,498,505,758.0,1,0,0,0,0,0,0,0,0,0
1748,494,511,758.0,1,0,0,0,0,0,0,0,0,0
1749,500,516,758.0,1,0,0,0,0,0,0,0,0,0
1750,511,512,758.0,1,0,0,0,0,0,0,0,0,0
1751,517,508,758.0,1,0,0,0,0,0,0,0,0,0
1752,522,511,758.0,1,0,0,0,0,0,0,0,0,0
1753,519,511,758.0,1,0,0,0,0,0,0,0,0,0
1754,516,507,758.0,1,0,0,0,0,0,0,0,0,0
1755,522,502,758.0,1,0,0,0,0,0,0,0,0,0
1756,530,504,758.0,1,0,0,0,0,0,0,0,0,0
1757,519,508,758.0,1,0,0,0,0,0,0,0,0,0
1758,502,510,758.0,1,0,0,0,0,0,0,0,0,0
1759,494,511,757.0,1,0,0,0,0,0,0,0,0,0
1760,493,512,758.0,1,0,0,0,0,0,0,0,0,0
1761,500,512,758.0,1,0,0,0,0,0,0,0,0,0
1762,508,510,758.0,1,0,0,0,0,0,0,0,0,0
1763,513,508,758.0,1,0,0,0,0,0,0,0,0,0
1764,508,509,758.0,1,0,0,0,0,0,0,0,0,0
1765,499,509,758.0,1,0,0,0,0,0,0,0,0,0
1766,495,508,758.0,1,0,0,0,0,0,0,0,0,0
1767,501,508,758.0,1,0,0,0,0,0,0,0,0,0
1768,511,510,758.0,1,0,0,0,0,0,0,0,0,0
1769,512,511,758.0,1,0,0,0,0,0,0,0,0,0
1770,515,508,758.0,1,0,0,0,0,0,0,0,0,0
1771,521,506,758.0,1,0,0,0,0,0,0,0,0,0
1772,521,507,758.0,1,0,0,0,0,0,0,0,0,0
1773,521,510,758.0,1,0,0,0,0,0,0,0,0,0
1774,520,509,758.0,1,0,0,0,0,0,0,0,0,0
1775,520,508,758.0,1,0,0,0,0,0,0,0,0,0
1776,521,508,758.0,1,0,0,0,0,0,0,0,0,0
1777,518,506,758.0,1,0,0,0,0,0,0,0,0,0
1778,517,508,758.0,1,0,0,0,0,0,0,0,0,0
1779,518,510,758.0,1,0,0,0,0,0,0,0,0,0
1780,521,510,758.0,1,0,0,0,0,0,0,0,0,0
1781,527,511,758.0,1,0,0,0,0,0,0,0,0,0
1782,526,511,758.0,1,0,0,0,0,0,0,0,0,0
1783,514,512,758.0,1,0,0,0,0,0,0,0,0,0
1784,504,513,758.0,1,0,0,0,0,0,0,0,0,0
1785,501,512,758.0,1,0,0,0,0,0,0,0,0,0
1786,499,511,758.0,1,0,0,0,0,0,0,0,0,0
1787,505,511,758.0,1,0,0,0,0,0,0,0,0,0
1788,516,513,758.0,1,0,0,0,0,0,0,0,0,0
1789,514,512,758.0,1,0,0,0,0,0,0,0,0,0
1790,498,511,758.0,1,0,0,0,0,0,0,0,0,0
1791,490,512,758.0,1,0,0,0,0,0,0,0,0,0
1792,493,514,758.0,1,0,0,0,0,0,0,0,0,0
1793,498,511,758.0,1,0,0,0,0,0,0,0,0,0
1794,500,511,758.0,1,0,0,0,0,0,0,0,0,0
1795,503,508,758.0,1,0,0,0,0,0,0,0,0,0
1796,507,505,758.0,1,0,0,0,0,0,0,0,0,0
1797,508,506,758.0,1,0,0,0,0,0,0,0,0,0
1798,514,507,758.0,1,0,0,0,0,0,0,0,0,0
1799,529,508,758.0,1,0,0,0,0,0,0,0,0,0
1800,549,514,758.0,1,0,0,0,0,0,0,0,0,0
1801,571,519,758.0,1,0,0,0,0,0,0,0,0,0
1802,598,512,758.0,1,0,0,0,0,0,0,0,0,0
1803,628,500,758.0,1,0,0,0,0,0,0,0,0,0
1804,659,492,758.0,1,0,0,0,0,0,0,0,0,0
1805,667,493,758.0,1,0,0,0,0,0,0,0,0,0
1806,633,498,758.0,1,0,0,0,0,0,0,0,0,0
1807,576,504,758.0,1,0,0,0,0,0,0,0,0,0
1808,529,513,758.0,1,0,0,0,0,0,0,0,0,0
1809,502,517,758.0,1,0,0,0,0,0,0,0,0,0
1810,480,519,758.0,1,0,0,0,0,0,0,0,0,0
1811,463,520,758.0,1,0,0,0,0,0,0,0,0,0
1812,454,519,758.0,1,0,0,0,0,0,0,0,0,0
1813,450,519,758.0,1,0,0,0,0,0,0,0,0,0
1814,456,515,758.0,1,0,0,0,0,0,0,0,0,0
1815,465,514,758.0,1,0,0,0,0,0,0,0,0,0
1816,474,512,758.0,1,0,0,0,0,0,0,0,0,0
1817,477,513,758.0,1,0,0,0,0,0,0,0,0,0
1818,478,515,758.0,1,0,0,0,0,0,0,0,0,0
1819,480,511,758.0,1,0,0,0,0,0,0,0,0,0
1820,482,510,758.0,1,0,0,0,0,0,0,0,0,0
1821,485,512,758.0,1,0,0,0,0,0,0,0,0,0
1822,488,513,758.0,1,0,0,0,0,0,0,0,0,0
1823,494,514,758.0,1,0,0,0,0,0,0,0,0,0
1824,498,515,758.0,1,0,0,0,0,0,0,0,0,0
1825,490,515,758.0,1,0,0,0,0,0,0,0,0,0
1826,486,510,758.0,1,0,0,0,0,0,0,0,0,0
1827,482,511,758.0,1,0,0,0,0,0,0,0,0,0
1828,483,513,758.0,1,0,0,0,0,0,0,0,0,0
1829,487,513,758.0,1,0,0,0,0,0,0,0,0,0
1830,493,510,758.0,1,0,0,0,0,0,0,0,0,0
1831,492,508,758.0,1,0,0,0,0,0,0,0,0,0
1832,490,511,758.0,1,0,0,0,0,0,0,0,0,0
1833,487,516,758.0,1,0,0,0,0,0,0,0,0,0
1834,486,516,758.0,1,0,0,0,0,0,0,0,0,0
1835,488,516,758.0,1,0,0,0,0,0,0,0,0,0
1836,492,520,758.0,1,0,0,0,0,0,0,0,0,0
1837,496,520,758.0,1,0,0,0,0,0,0,0,0,0
1838,500,517,758.0,1,0,0,0,0,0,0,0,0,0
1839,501,510,758.0,1,0,0,0,0,0,0,0,0,0
1840,508,509,758.0,1,0,0,0,0,0,0,0,0,0
1841,515,509,758.0,1,0,0,0,0,0,0,0,0,0
1842,510,507,758.0,1,0,0,0,0,0,0,0,0,0
1843,504,504,758.0,1,0,0,0,0,0,0,0,0,0
1844,512,508,758.0,1,0,0,0,0,0,0,0,0,0
1845,526,512,758.0,1,0,0,0,0,0,0,0,0,0
1846,516,508,758.0,1,0,0,0,0,0,0,0,0,0
1847,498,509,758.0,1,0,0,0,0,0,0,0,0,0
1848,495,512,758.0,1,0,0,0,0,0,0,0,0,0
1849,498,512,758.0,1,0,0,0,0,0,0,0,0,0
1850,496,512,758.0,1,0,0,0,0,0,0,0,0,0
1851,499,507,758.0,1,0,0,0,0,0,0,0,0,0
1852,512,504,758.0,1,0,0,0,0,0,0,0,0,0
1853,524,508,758.0,1,0,0,0,0,0,0,0,0,0
1854,523,509,758.0,1,0,0,0,0,0,0,0,0,0
1855,516,510,758.0,1,0,0,0,0,0,0,0,0,0
1856,510,511,758.0,1,0,0,0,0,0,0,0,0,0
1857,497,510,758.0,1,0,0,0,0,0,0,0,0,0
1858,493,510,758.0,1,0,0,0,0,0,0,0,0,0
1859,498,512,758.0,1,0,0,0,0,0,0,0,0,0
1860,500,514,758.0,1,0,0,0,0,0,0,0,0,0
1861,506,510,758.0,1,0,0,0,0,0,0,0,0,0
1862,513,509,758.0,1,0,0,0,0,0,0,0,0,0
1863,517,512,758.0,1,0,0,0,0,0,0,0,0,0
1864,520,513,758.0,1,0,0,0,0,0,0,0,0,0
1865,519,509,758.0,1,0,0,0,0,0,0,0,0,0
1866,523,507,758.0,1,0,0,0,0,0,0,0,0,0
1867,522,503,758.0,1,0,0,0,0,0,0,0,0,0
1868,511,499,758.0,1,0,0,0,0,0,0,0,0,0
1869,505,498,758.0,1,0,0,0,0,0,0,0,0,0
1870,510,502,758.0,1,0,0,0,0,0,0,0,0,0
1871,517,506,758.0,1,0,0,0,0,0,0,0,0,0
1872,519,507,758.0,1,0,0,0,0,0,0,0,0,0
1873,523,510,758.0,1,0,0,0,0,0,0,0,0,0
1874,549,508,758.0,1,0,0,0,0,0,0,0,0,0
1875,557,505,758.0,1,0,0,0,0,0,0,0,0,0
1876,520,505,758.0,1,0,0,0,0,0,0,0,0,0
1877,489,505,758.0,1,0,0,0,0,0,0,0,0,0
1878,497,509,758.0,1,0,0,0,0,0,0,0,0,0
1879,509,511,758.0,1,0,0,0,0,0,0,0,0,0
1880,502,511,758.0,1,0,0,0,0,0,0,0,0,0
1881,499,511,758.0,1,0,0,0,0,0,0,0,0,0
1882,507,510,758.0,1,0,0,0,0,0,0,0,0,0
1883,518,512,758.0,1,0,0,0,0,0,0,0,0,0
1884,523,512,758.0,1,0,0,0,0,0,0,0,0,0
1885,514,517,758.0,1,0,0,0,0,0,0,0,0,0
1886,496,516,758.0,1,0,0,0,0,0,0,0,0,0
1887,493,512,758.0,1,0,0,0,0,0,0,0,0,0
1888,500,512,758.0,1,0,0,0,0,0,0,0,0,0
1889,505,509,758.0,1,0,0,0,0,0,0,0,0,0
1890,515,510,758.0,1,0,0,0,0,0,0,0,0,0
1891,517,512,758.0,1,0,0,0,0,0,0,0,0,0
1892,513,513,759.0,1,0,0,0,0,0,0,0,0,0
1893,507,511,758.0,1,0,0,0,0,0,0,0,0,0
1894,497,512,758.0,1,0,0,0,0,0,0,0,0,0
1895,492,516,758.0,1,0,0,0,0,0,0,0,0,0
1896,492,517,758.0,1,0,0,0,0,0,0,0,0,0
1897,494,515,759.0,1,0,0,0,0,0,0,0,0,0
1898,499,516,758.0,1,0,0,0,0,0,0,0,0,0
1899,514,515,759.0,1,0,0,0,0,0,0,0,0,0
1900,515,516,758.0,1,0,0,0,0,0,0,0,0,0
1901,490,523,758.0,1,0,0,0,0,0,0,0,0,0
1902,471,526,759.0,1,0,0,0,0,0,0,0,0,0
1903,475,527,758.0,1,0,0,0,0,0,0,0,0,0
1904,493,522,758.0,1,0,0,0,0,0,0,0,0,0
1905,503,515,759.0,1,0,0,0,0,0,0,0,0,0
1906,506,515,759.0,1,0,0,0,0,0,0,0,0,0
1907,501,518,758.0,1,0,0,0,0,0,0,0,0,0
1908,492,514,758.0,1,0,0,0,0,0,0,0,0,0
1909,495,509,758.0,1,0,0,0,0,0,0,0,0,0
1910,491,505,758.0,1,0,0,0,0,0,0,0,0,0
1911,487,507,759.0,1,0,0,0,0,0,0,0,0,0
1912,490,512,759.0,1,0,0,0,0,0,0,0,0,0
1913,499,513,759.0,1,0,0,0,0,0,0,0,0,0
1914,498,513,759.0,1,0,0,0,0,0,0,0,0,0
1915,509,515,759.0,1,0,0,0,0,0,0,0,0,0
1916,511,515,759.0,1,0,0,0,0,0,0,0,0,0
1917,508,517,758.0,1,0,0,0,0,0,0,0,0,0
1918,505,518,758.0,1,0,0,0,0,0,0,0,0,0
1919,499,516,759.0,1,0,0,0,0,0,0,0,0,0
1920,504,514,759.0,1,0,0,0,0,0,0,0,0,0
1921,513,513,759.0,1,0,0,0,0,0,0,0,0,0
1922,511,510,759.0,1,0,0,0,0,0,0,0,0,0
1923,506,507,759.0,1,0,0,0,0,0,0,0,0,0
1924,507,505,759.0,1,0,0,0,0,0,0,0,0,0
1925,518,510,759.0,1,0,0,0,0,0,0,0,0,0
1926,518,516,759.0,1,0,0,0,0,0,0,0,0,0
1927,507,513,759.0,1,0,0,0,0,0,0,0,0,0
1928,501,514,759.0,1,0,0,0,0,0,0,0,0,0
1929,505,511,759.0,1,0,0,0,0,0,0,0,0,0
1930,499,501,759.0,1,0,0,0,0,0,0,0,0,0
1931,497,495,758.0,1,0,0,0,0,0,0,0,0,0
1932,508,500,759.0,1,0,0,0,0,0,0,0,0,0
1933,514,504,758.0,1,0,0,0,0,0,0,0,0,0
1934,506,505,758.0,1,0,0,0,0,0,0,0,0,0
1935,503,503,759.0,1,0,0,0,0,0,0,0,0,0
1936,507,498,759.0,1,0,0,0,0,0,0,0,0,0
1937,508,494,759.0,1,0,0,0,0,0,0,0,0,0
1938,525,492,759.0,1,0,0,0,0,0,0,0,0,0
1939,546,493,758.0,1,0,0,0,0,0,0,0,0,0
1940,537,495,759.0,1,0,0,0,0,0,0,0,0,0
1941,500,492,759.0,1,0,0,0,0,0,0,0,0,0
1942,480,487,759.0,1,0,0,0,0,0,0,0,0,0
1943,484,487,759.0,1,0,0,0,0,0,0,0,0,0
1944,496,486,759.0,1,0,0,0,0,0,0,0,0,0
1945,499,485,759.0,1,0,0,0,0,0,0,0,0,0
1946,503,486,759.0,1,0,0,0,0,0,0,0,0,0
1947,507,489,759.0,1,0,0,0,0,0,0,0,0,0
1948,503,495,759.0,1,0,0,0,0,0,0,0,0,0
1949,504,497,759.0,1,0,0,0,0,0,0,0,0,0
1950,502,495,759.0,1,0,0,0,0,0,0,0,0,0
1951,498,497,759.0,1,0,0,0,0,0,0,0,0,0
1952,497,501,759.0,1,0,0,0,0,0,0,0,0,0
1953,496,501,758.0,1,0,0,0,0,0,0,0,0,0
1954,503,500,759.0,1,0,0,0,0,0,0,0,0,0
1955,510,503,759.0,1,0,0,0,0,0,0,0,0,0
1956,508,506,759.0,1,0,0,0,0,0,0,0,0,0
1957,503,507,758.0,1,0,0,0,0,0,0,0,0,0
1958,498,506,759.0,1,0,0,0,0,0,0,0,0,0
1959,503,506,759.0,1,0,0,0,0,0,0,0,0,0
1960,500,508,759.0,1,0,0,0,0,0,0,0,0,0
1961,504,510,759.0,1,0,0,0,0,0,0,0,0,0
1962,508,513,759.0,1,0,0,0,0,0,0,0,0,0
1963,496,518,759.0,1,0,0,0,0,0,0,0,0,0
1964,501,523,759.0,1,0,0,0,0,0,0,0,0,0
1965,514,519,759.0,1,0,0,0,0,0,0,0,0,0
1966,530,517,759.0,1,0,0,0,0,0,0,0,0,0
1967,530,517,759.0,1,0,0,0,0,0,0,0,0,0
1968,497,516,759.0,1,0,0,0,0,0,0,0,0,0
1969,505,515,759.0,1,0,0,0,0,0,0,0,0,0
1970,518,518,759.0,1,0,0,0,0,0,0,0,0,0
1971,513,521,759.0,1,0,0,0,0,0,0,0,0,0
1972,503,524,759.0,1,0,0,0,0,0,0,0,0,0
1973,507,522,759.0,1,0,0,0,0,0,0,0,0,0
1974,499,517,759.0,1,0,0,0,0,0,0,0,0,0
1975,507,517,759.0,1,0,0,0,0,0,0,0,0,0
1976,502,519,759.0,1,0,0,0,0,0,0,0,0,0
1977,490,519,759.0,1,0,0,0,0,0,0,0,0,0
1978,484,514,759.0,1,0,0,0,0,0,0,0,0,0
1979,478,514,759.0,1,0,0,0,0,0,0,0,0,0
1980,486,515,759.0,1,0,0,0,0,0,0,0,0,0
1981,496,517,759.0,1,0,0,0,0,0,0,0,0,0
1982,497,517,759.0,1,0,0,0,0,0,0,0,0,0
1983,506,512,759.0,1,0,0,0,0,0,0,0,0,0
1984,518,510,759.0,1,0,0,0,0,0,0,0,0,0
1985,520,510,759.0,1,0,0,0,0,0,0,0,0,0
1986,518,510,759.0,1,0,0,0,0,0,0,0,0,0
1987,520,514,759.0,1,0,0,0,0,0,0,0,0,0
1988,508,516,759.0,1,0,0,0,0,0,0,0,0,0
1989,503,513,759.0,1,0,0,0,0,0,0,0,0,0
1990,495,506,759.0,1,0,0,0,0,0,0,0,0,0
1991,486,502,759.0,1,0,0,0,0,0,0,0,0,0
1992,488,502,759.0,1,0,0,0,0,0,0,0,0,0
1993,501,503,759.0,1,0,0,0,0,0,0,0,0,0
1994,506,504,759.0,1,0,0,0,0,0,0,0,0,0
1995,496,505,759.0,1,0,0,0,0,0,0,0,0,0
1996,494,508,759.0,1,0,0,0,0,0,0,0,0,0
1997,500,507,759.0,1,0,0,0,0,0,0,0,0,0
1998,507,504,759.0,1,0,0,0,0,0,0,0,0,0
1999,503,505,759.0,1,0,0,0,0,0,0,0,0,0
2000,502,509,759.0,1,0,0,0,0,0,0,0,0,0
2001,500,510,759.0,1,0,0,0,0,0,0,0,0,0
2002,505,511,759.0,1,0,0,0,0,0,0,0,0,0
2003,507,515,759.0,1,0,0,0,0,0,0,0,0,0
2004,523,518,759.0,1,0,0,0,0,0,0,0,0,0
2005,526,518,759.0,1,0,0,0,0,0,0,0,0,0
2006,515,514,759.0,1,0,0,0,0,0,0,0,0,0
2007,522,512,759.0,1,0,0,0,0,0,0,0,0,0
2008,507,515,759.0,1,0,0,0,0,0,0,0,0,0
2009,500,516,759.0,1,0,0,0,0,0,0,0,0,0
2010,511,516,759.0,1,0,0,0,0,0,0,0,0,0
2011,509,507,759.0,1,0,0,0,0,0,0,0,0,0
2012,507,505,759.0,1,0,0,0,0,0,0,0,0,0
2013,508,511,759.0,1,0,0,0,0,0,0,0,0,0
2014,506,513,759.0,1,0,0,0,0,0,0,0,0,0
2015,496,513,759.0,1,0,0,0,0,0,0,0,0,0
2016,502,518,759.0,1,0,0,0,0,0,0,0,0,0
2017,511,521,759.0,1,0,0,0,0,0,0,0,0,0
2018,505,519,759.0,1,0,0,0,0,0,0,0,0,0
2019,494,520,759.0,1,0,0,0,0,0,0,0,0,0
2020,488,523,759.0,1,0,0,0,0,0,0,0,0,0
2021,489,524,759.0,1,0,0,0,0,0,0,0,0,0
2022,489,519,759.0,1,0,0,0,0,0,0,0,0,0
2023,491,520,759.0,1,0,0,0,0,0,0,0,0,0
2024,491,523,759.0,1,0,0,0,0,0,0,0,0,0
2025,492,523,759.0,1,0,0,0,0,0,0,0,0,0
2026,500,523,759.0,1,0,0,0,0,0,0,0,0,0
2027,513,520,759.0,1,0,0,0,0,0,0,0,0,0
2028,504,519,759.0,1,0,0,0,0,0,0,0,0,0
2029,493,517,759.0,1,0,0,0,0,0,0,0,0,0
2030,490,517,759.0,1,0,0,0,0,0,0,0,0,0
2031,490,520,759.0,1,0,0,0,0,0,0,0,0,0
2032,492,520,759.0,1,0,0,0,0,0,0,0,0,0
2033,502,518,759.0,1,0,0,0,0,0,0,0,0,0
2034,510,516,759.0,1,0,0,0,0,0,0,0,0,0
2035,509,517,759.0,1,0,0,0,0,0,0,0,0,0
2036,510,519,759.0,1,0,0,0,0,0,0,0,0,0
2037,517,519,759.0,1,0,0,0,0,0,0,0,0,0
2038,535,511,759.0,1,0,0,0,0,0,0,0,0,0
2039,563,502,759.0,1,0,0,0,0,0,0,0,0,0
2040,588,489,759.0,1,0,0,0,0,0,0,0,0,0
2041,607,479,759.0,1,0,0,0,0,0,0,0,0,0
2042,616,479,759.0,1,0,0,0,0,0,0,0,0,0
2043,606,483,759.0,1,0,0,0,0,0,0,0,0,0
2044,576,489,759.0,1,0,0,0,0,0,0,0,0,0
2045,543,499,759.0,1,0,0,0,0,0,0,0,0,0
2046,511,513,759.0,1,0,0,0,0,0,0,0,0,0
2047,480,517,759.0,1,0,0,0,0,0,0,0,0,0
2048,461,516,759.0,1,0,0,0,0,0,0,0,0,0
2049,452,519,759.0,1,0,0,0,0,0,0,0,0,0
2050,449,520,759.0,1,0,0,0,0,0,0,0,0,0
2051,460,518,759.0,1,0,0,0,0,0,0,0,0,0
2052,470,516,759.0,1,0,0,0,0,0,0,0,0,0
2053,479,517,759.0,1,0,0,0,0,0,0,0,0,0
2054,495,520,759.0,1,0,0,0,0,0,0,0,0,0
2055,492,515,759.0,1,0,0,0,0,0,0,0,0,0
2056,473,514,759.0,1,0,0,0,0,0,0,0,0,0
2057,470,516,759.0,1,0,0,0,0,0,0,0,0,0
2058,478,514,759.0,1,0,0,0,0,0,0,0,0,0
2059,488,513,759.0,1,0,0,0,0,0,0,0,0,0
2060,499,514,759.0,1,0,0,0,0,0,0,0,0,0
2061,505,510,759.0,1,0,0,0,0,0,0,0,0,0
2062,495,506,759.0,1,0,0,0,0,0,0,0,0,0
2063,478,503,759.0,1,0,0,0,0,0,0,0,0,0
2064,479,500,759.0,1,0,0,0,0,0,0,0,0,0
2065,481,503,759.0,1,0,0,0,0,0,0,0,0,0
2066,487,504,759.0,1,0,0,0,0,0,0,0,0,0
2067,480,506,759.0,1,0,0,0,0,0,0,0,0,0
2068,477,508,759.0,1,0,0,0,0,0,0,0,0,0
2069,481,510,759.0,1,0,0,0,0,0,0,0,0,0
2070,489,514,759.0,1,0,0,0,0,0,0,0,0,0
2071,493,522,759.0,1,0,0,0,0,0,0,0,0,0
2072,497,529,759.0,1,0,0,0,0,0,0,0,0,0
2073,503,528,759.0,1,0,0,0,0,0,0,0,0,0
2074,505,526,759.0,1,0,0,0,0,0,0,0,0,0
2075,503,527,759.0,1,0,0,0,0,0,0,0,0,0
2076,511,530,759.0,1,0,0,0,0,0,0,0,0,0
2077,524,524,759.0,1,0,0,0,0,0,0,0,0,0
2078,515,522,759.0,1,0,0,0,0,0,0,0,0,0
2079,502,531,759.0,1,0,0,0,0,0,0,0,0,0
2080,492,529,759.0,1,0,0,0,0,0,0,0,0,0
2081,494,521,759.0,1,0,0,0,0,0,0,0,0,0
2082,501,522,759.0,1,0,0,0,0,0,0,0,0,0
2083,509,524,759.0,1,0,0,0,0,0,0,0,0,0
2084,520,525,759.0,1,0,0,0,0,0,0,0,0,0
2085,523,520,759.0,1,0,0,0,0,0,0,0,0,0
2086,517,516,759.0,1,0,0,0,0,0,0,0,0,0
2087,513,516,759.0,1,0,0,0,0,0,0,0,0,0
2088,502,519,759.0,1,0,0,0,0,0,0,0,0,0
2089,499,520,759.0,1,0,0,0,0,0,0,0,0,0
2090,503,516,759.0,1,0,0,0,0,0,0,0,0,0
2091,519,516,759.0,1,0,0,0,0,0,0,0,0,0
2092,519,520,759.0,1,0,0,0,0,0,0,0,0,0
2093,512,515,759.0,1,0,0,0,0,0,0,0,0,0
2094,508,512,759.0,1,0,0,0,0,0,0,0,0,0
2095,504,512,759.0,1,0,0,0,0,0,0,0,0,0
2096,501,509,759.0,1,0,0,0,0,0,0,0,0,0
2097,503,508,759.0,1,0,0,0,0,0,0,0,0,0
2098,508,510,759.0,1,0,0,0,0,0,0,0,0,0
2099,509,509,759.0,1,0,0,0,0,0,0,0,0,0
2100,511,510,759.0,1,0,0,0,0,0,0,0,0,0
2101,515,511,759.0,1,0,0,0,0,0,0,0,0,0
2102,525,511,759.0,1,0,0,0,0,0,0,0,0,0
2103,520,510,759.0,1,0,0,0,0,0,0,0,0,0
2104,511,511,759.0,1,0,0,0,0,0,0,0,0,0
2105,507,511,759.0,1,0,0,0,0,0,0,0,0,0
2106,510,511,759.0,1,0,0,0,0,0,0,0,0,0
2107,512,511,759.0,1,0,0,0,0,0,0,0,0,0
2108,515,511,760.0,1,0,0,0,0,0,0,0,0,0
2109,519,513,760.0,1,0,0,0,0,0,0,0,0,0
2110,534,521,759.0,1,0,0,0,0,0,0,0,0,0
2111,529,521,760.0,1,0,0,0,0,0,0,0,0,0
2112,510,512,760.0,1,0,0,0,0,0,0,0,0,0
2113,496,510,760.0,1,0,0,0,0,0,0,0,0,0
2114,494,511,760.0,1,0,0,0,0,0,0,0,0,0
2115,498,510,760.0,1,0,0,0,0,0,0,0,0,0
2116,503,511,760.0,1,0,0,0,0,0,0,0,0,0
2117,505,514,760.0,1,0,0,0,0,0,0,0,0,0
2118,510,517,760.0,1,0,0,0,0,0,0,0,0,0
2119,507,522,760.0,1,0,0,0,0,0,0,0,0,0
2120,507,528,760.0,1,0,0,0,0,0,0,0,0,0
2121,514,534,760.0,1,0,0,0,0,0,0,0,0,0
2122,520,540,760.0,1,0,0,0,0,0,0,0,0,0
2123,513,541,760.0,1,0,0,0,0,0,0,0,0,0
2124,507,541,760.0,1,0,0,0,0,0,0,0,0,0
2125,506,540,760.0,1,0,0,0,0,0,0,0,0,0
2126,512,537,760.0,1,0,0,0,0,0,0,0,0,0
2127,514,532,760.0,1,0,0,0,0,0,0,0,0,0
2128,513,529,760.0,1,0,0,0,0,0,0,0,0,0
2129,519,526,760.0,1,0,0,0,0,0,0,0,0,0
2130,521,522,760.0,1,0,0,0,0,0,0,0,0,0
2131,518,515,760.0,1,0,0,0,0,0,0,0,0,0
2132,514,514,760.0,1,0,0,0,0,0,0,0,0,0
2133,514,516,760.0,1,0,0,0,0,0,0,0,0,0
2134,515,514,760.0,1,0,0,0,0,0,0,0,0,0
2135,515,512,760.0,1,0,0,0,0,0,0,0,0,0
2136,514,514,760.0,1,0,0,0,0,0,0,0,0,0
2137,513,515,760.0,1,0,0,0,0,0,0,0,0,0
2138,514,515,760.0,1,0,0,0,0,0,0,0,0,0
2139,516,512,760.0,1,0,0,0,0,0,0,0,0,0
2140,517,513,760.0,1,0,0,0,0,0,0,0,0,0
2141,518,515,760.0,1,0,0,0,0,0,0,0,0,0
2142,516,518,760.0,1,0,0,0,0,0,0,0,0,0
2143,515,521,760.0,1,0,0,0,0,0,0,0,0,0
2144,515,519,760.0,1,0,0,0,0,0,0,0,0,0
2145,513,518,760.0,1,0,0,0,0,0,0,0,0,0
2146,511,520,760.0,1,0,0,0,0,0,0,0,0,0
2147,509,523,760.0,1,0,0,0,0,0,0,0,0,0
2148,509,525,760.0,1,0,0,0,0,0,0,0,0,0
2149,509,523,760.0,1,0,0,0,0,0,0,0,0,0
2150,508,518,760.0,1,0,0,0,0,0,0,0,0,0
2151,507,511,760.0,1,0,0,0,0,0,0,0,0,0
2152,507,510,760.0,1,0,0,0,0,0,0,0,0,0
2153,506,511,760.0,1,0,0,0,0,0,0,0,0,0
2154,505,513,760.0,1,0,0,0,0,0,0,0,0,0
2155,505,513,760.0,1,0,0,0,0,0,0,0,0,0
2156,505,513,760.0,1,0,0,0,0,0,0,0,0,0
2157,506,515,760.0,1,0,0,0,0,0,0,0,0,0
2158,506,512,760.0,1,0,0,0,0,0,0,0,0,0
2159,508,512,760.0,1,0,0,0,0,0,0,0,0,0
2160,509,511,760.0,1,0,0,0,0,0,0,0,0,0
2161,509,509,760.0,1,0,0,0,0,0,0,0,0,0
2162,509,508,760.0,1,0,0,0,0,0,0,0,0,0
2163,510,508,760.0,1,0,0,0,0,0,0,0,0,0
2164,510,507,760.0,1,0,0,0,0,0,0,0,0,0
2165,513,507,760.0,1,0,0,0,0,0,0,0,0,0
2166,512,504,760.0,1,0,0,0,0,0,0,0,0,0
2167,513,500,760.0,1,0,0,0,0,0,0,0,0,0
2168,514,499,760.0,1,0,0,0,0,0,0,0,0,0
2169,516,502,760.0,1,0,0,0,0,0,0,0,0,0
2170,518,503,760.0,1,0,0,0,0,0,0,0,0,0
2171,517,501,760.0,1,0,0,0,0,0,0,0,0,0
2172,519,502,760.0,1,0,0,0,0,0,0,0,0,0
2173,527,501,760.0,1,0,0,0,0,0,0,0,0,0
2174,521,496,760.0,1,0,0,0,0,0,0,0,0,0
2175,515,494,760.0,1,0,0,0,0,0,0,0,0,0
2176,515,494,760.0,1,0,0,0,0,0,0,0,0,0
2177,518,495,760.0,1,0,0,0,0,0,0,0,0,0
2178,519,493,760.0,1,0,0,0,0,0,0,0,0,0
2179,521,492,760.0,1,0,0,0,0,0,0,0,0,0
2180,524,491,760.0,1,0,0,0,0,0,0,0,0,0
2181,526,489,760.0,1,0,0,0,0,0,0,0,0,0
2182,527,489,760.0,1,0,0,0,0,0,0,0,0,0
2183,526,486,760.0,1,0,0,0,0,0,0,0,0,0
2184,527,485,760.0,1,0,0,0,0,0,0,0,0,0
2185,526,485,760.0,1,0,0,0,0,0,0,0,0,0
2186,528,485,760.0,1,0,0,0,0,0,0,0,0,0
2187,529,483,760.0,1,0,0,0,0,0,0,0,0,0
2188,529,486,760.0,1,0,0,0,0,0,0,0,0,0
2189,529,486,760.0,1,0,0,0,0,0,0,0,0,0
2190,527,488,760.0,1,0,0,0,0,0,0,0,0,0
2191,529,489,760.0,1,0,0,0,0,0,0,0,0,0
2192,528,486,760.0,1,0,0,0,0,0,0,0,0,0
2193,527,485,760.0,1,0,0,0,0,0,0,0,0,0
2194,526,487,760.0,1,0,0,0,0,0,0,0,0,0
2195,527,486,760.0,1,0,0,0,0,0,0,0,0,0
2196,536,487,760.0,1,0,0,0,0,0,0,0,0,0
2197,535,487,760.0,1,0,0,0,0,0,0,0,0,0
2198,523,482,760.0,1,0,0,0,0,0,0,0,0,0
2199,519,480,760.0,1,0,0,0,0,0,0,0,0,0
2200,521,482,760.0,1,0,0,0,0,0,0,0,0,0
2201,524,480,760.0,1,0,0,0,0,0,0,0,0,0
2202,525,475,760.0,1,0,0,0,0,0,0,0,0,0
2203,524,472,760.0,1,0,0,0,0,0,0,0,0,0
2204,522,471,760.0,1,0,0,0,0,0,0,0,0,0
2205,524,471,760.0,1,0,0,0,0,0,0,0,0,0
2206,525,474,760.0,1,0,0,0,0,0,0,0,0,0
2207,524,477,760.0,1,0,0,0,0,0,0,0,0,0
2208,525,479,760.0,1,0,0,0,0,0,0,0,0,0
2209,530,482,760.0,1,0,0,0,0,0,0,0,0,0
2210,531,486,760.0,1,0,0,0,0,0,0,0,0,0
2211,533,489,760.0,1,0,0,0,0,0,0,0,0,0
2212,529,493,760.0,1,0,0,0,0,0,0,0,0,0
2213,523,495,760.0,1,0,0,0,0,0,0,0,0,0
2214,521,494,760.0,1,0,0,0,0,0,0,0,0,0
2215,523,494,760.0,1,0,0,0,0,0,0,0,0,0
2216,516,491,760.0,1,0,0,0,0,0,0,0,0,0
2217,506,493,760.0,1,0,0,0,0,0,0,0,0,0
2218,505,497,760.0,1,0,0,0,0,0,0,0,0,0
2219,508,498,760.0,1,0,0,0,0,0,0,0,0,0
2220,510,498,760.0,1,0,0,0,0,0,0,0,0,0
2221,514,498,760.0,1,0,0,0,0,0,0,0,0,0
2222,517,499,760.0,1,0,0,0,0,0,0,0,0,0
2223,517,498,760.0,1,0,0,0,0,0,0,0,0,0
2224,515,498,760.0,1,0,0,0,0,0,0,0,0,0
2225,517,499,760.0,1,0,0,0,0,0,0,0,0,0
2226,517,502,760.0,1,0,0,0,0,0,0,0,0,0
2227,519,505,760.0,1,0,0,0,0,0,0,0,0,0
2228,522,508,760.0,1,0,0,0,0,0,0,0,0,0
2229,522,510,760.0,1,0,0,0,0,0,0,0,0,0
2230,523,508,760.0,1,0,0,0,0,0,0,0,0,0
2231,526,508,760.0,1,0,0,0,0,0,0,0,0,0
2232,536,511,760.0,1,0,0,0,0,0,0,0,0,0
2233,539,510,760.0,1,0,0,0,0,0,0,0,0,0
2234,531,512,760.0,1,0,0,0,0,0,0,0,0,0
2235,525,514,760.0,1,0,0,0,0,0,0,0,0,0
2236,523,517,760.0,1,0,0,0,0,0,0,0,0,0
2237,524,520,760.0,1,0,0,0,0,0,0,0,0,0
2238,530,519,760.0,1,0,0,0,0,0,0,0,0,0
2239,532,518,760.0,1,0,0,0,0,0,0,0,0,0
2240,518,519,760.0,1,0,0,0,0,0,0,0,0,0
2241,511,519,760.0,1,0,0,0,0,0,0,0,0,0
2242,508,521,760.0,1,0,0,0,0,0,0,0,0,0
2243,510,523,760.0,1,0,0,0,0,0,0,0,0,0
2244,515,522,760.0,1,0,0,0,0,0,0,0,0,0
2245,518,520,760.0,1,0,0,0,0,0,0,0,0,0
2246,517,519,760.0,1,0,0,0,0,0,0,0,0,0
2247,512,522,760.0,1,0,0,0,0,0,0,0,0,0
2248,512,525,760.0,1,0,0,0,0,0,0,0,0,0
2249,510,524,760.0,1,0,0,0,0,0,0,0,0,0
2250,506,523,760.0,1,0,0,0,0,0,0,0,0,0
2251,505,522,760.0,1,0,0,0,0,0,0,0,0,0
2252,509,522,760.0,1,0,0,0,0,0,0,0,0,0
2253,510,523,760.0,1,0,0,0,0,0,0,0,0,0
2254,508,523,760.0,1,0,0,0,0,0,0,0,0,0
2255,505,522,760.0,1,0,0,0,0,0,0,0,0,0
2256,507,521,760.0,1,0,0,0,0,0,0,0,0,0
2257,511,521,760.0,1,0,0,0,0,0,0,0,0,0
2258,517,519,760.0,1,0,0,0,0,0,0,0,0,0
2259,526,517,760.0,1,0,0,0,0,0,0,0,0,0
2260,537,515,760.0,1,0,0,0,0,0,0,0,0,0
2261,552,505,760.0,1,0,0,0,0,0,0,0,0,0
2262,571,491,760.0,1,0,0,0,0,0,0,0,0,0
2263,595,480,760.0,1,0,0,0,0,0,0,0,0,0
2264,616,474,760.0,1,0,0,0,0,0,0,0,0,0
2265,619,474,760.0,1,0,0,0,0,0,0,0,0,0
2266,602,480,760.0,1,0,0,0,0,0,0,0,0,0
2267,575,490,760.0,1,0,0,0,0,0,0,0,0,0
2268,542,500,760.0,1,0,0,0,0,0,0,0,0,0
2269,512,508,760.0,1,0,0,0,0,0,0,0,0,0
2270,492,512,760.0,1,0,0,0,0,0,0,0,0,0
2271,477,513,760.0,1,0,0,0,0,0,0,0,0,0
2272,466,512,760.0,1,0,0,0,0,0,0,0,0,0
2273,461,510,760.0,1,0,0,0,0,0,0,0,0,0
2274,463,509,760.0,1,0,0,0,0,0,0,0,0,0
2275,473,507,760.0,1,0,0,0,0,0,0,0,0,0
2276,480,506,760.0,1,0,0,0,0,0,0,0,0,0
2277,485,505,760.0,1,0,0,0,0,0,0,0,0,0
2278,489,506,760.0,1,0,0,0,0,0,0,0,0,0
2279,494,511,760.0,1,0,0,0,0,0,0,0,0,0
2280,499,509,760.0,1,0,0,0,0,0,0,0,0,0
2281,500,508,760.0,1,0,0,0,0,0,0,0,0,0
2282,496,510,760.0,1,0,0,0,0,0,0,0,0,0
2283,499,512,760.0,1,0,0,0,0,0,0,0,0,0
2284,498,515,760.0,1,0,0,0,0,0,0,0,0,0
2285,493,515,760.0,1,0,0,0,0,0,0,0,0,0
2286,493,514,760.0,1,0,0,0,0,0,0,0,0,0
2287,494,516,760.0,1,0,0,0,0,0,0,0,0,0
2288,496,519,760.0,1,0,0,0,0,0,0,0,0,0
2289,496,521,760.0,1,0,0,0,0,0,0,0,0,0
2290,498,523,760.0,1,0,0,0,0,0,0,0,0,0
2291,500,525,760.0,1,0,0,0,0,0,0,0,0,0
2292,501,529,760.0,1,0,0,0,0,0,0,0,0,0
2293,501,526,760.0,1,0,0,0,0,0,0,0,0,0
2294,503,521,760.0,1,0,0,0,0,0,0,0,0,0
2295,506,519,760.0,1,0,0,0,0,0,0,0,0,0
2296,507,516,760.0,1,0,0,0,0,0,0,0,0,0
2297,508,515,760.0,1,0,0,0,0,0,0,0,0,0
2298,507,515,760.0,1,0,0,0,0,0,0,0,0,0
2299,508,514,760.0,1,0,0,0,0,0,0,0,0,0
2300,510,518,760.0,1,0,0,0,0,0,0,0,0,0
2301,512,523,760.0,1,0,0,0,0,0,0,0,0,0
2302,513,520,760.0,1,0,0,0,0,0,0,0,0,0
2303,514,512,760.0,1,0,0,0,0,0,0,0,0,0
2304,515,510,760.0,1,0,0,0,0,0,0,0,0,0
2305,514,510,760.0,1,0,0,0,0,0,0,0,0,0
2306,513,514,760.0,1,0,0,0,0,0,0,0,0,0
2307,515,518,760.0,1,0,0,0,0,0,0,0,0,0
2308,513,519,760.0,1,0,0,0,0,0,0,0,0,0
2309,514,523,760.0,1,0,0,0,0,0,0,0,0,0
2310,513,527,760.0,1,0,0,0,0,0,0,0,0,0
2311,512,527,760.0,1,0,0,0,0,0,0,0,0,0
2312,510,528,760.0,1,0,0,0,0,0,0,0,0,0
2313,512,530,760.0,1,0,0,0,0,0,0,0,0,0
2314,513,528,760.0,1,0,0,0,0,0,0,0,0,0
2315,512,530,760.0,1,0,0,0,0,0,0,0,0,0
2316,511,531,760.0,1,0,0,0,0,0,0,0,0,0
2317,510,525,760.0,1,0,0,0,0,0,0,0,0,0
2318,514,518,760.0,1,0,0,0,0,0,0,0,0,0
2319,516,513,760.0,1,0,0,0,0,0,0,0,0,0
2320,519,510,760.0,1,0,0,0,0,0,0,0,0,0
2321,521,510,760.0,1,0,0,0,0,0,0,0,0,0
2322,521,513,760.0,1,0,0,0,0,0,0,0,0,0
2323,519,513,760.0,1,0,0,0,0,0,0,0,0,0
2324,518,512,760.0,1,0,0,0,0,0,0,0,0,0
2325,519,511,760.0,1,0,0,0,0,0,0,0,0,0
2326,520,512,760.0,1,0,0,0,0,0,0,0,0,0
2327,521,517,760.0,1,0,0,0,0,0,0,0,0,0
2328,522,528,760.0,1,0,0,0,0,0,0,0,0,0
2329,522,538,760.0,1,0,0,0,0,0,0,0,0,0
2330,520,535,760.0,1,0,0,0,0,0,0,0,0,0
2331,520,524,760.0,1,0,0,0,0,0,0,0,0,0
2332,520,511,760.0,1,0,0,0,0,0,0,0,0,0
2333,519,515,760.0,1,0,0,0,0,0,0,0,0,0
2334,517,528,760.0,1,0,0,0,0,0,0,0,0,0
2335,513,526,760.0,1,0,0,0,0,0,0,0,0,0
2336,516,511,760.0,1,0,0,0,0,0,0,0,0,0
2337,519,505,760.0,1,0,0,0,0,0,0,0,0,0
2338,522,505,760.0,1,0,0,0,0,0,0,0,0,0
2339,524,505,760.0,1,0,0,0,0,0,0,0,0,0
2340,523,500,760.0,1,0,0,0,0,0,0,0,0,0
2341,524,496,760.0,1,0,0,0,0,0,0,0,0,0
2342,521,497,760.0,1,0,0,0,0,0,0,0,0,0
2343,517,502,760.0,1,0,0,0,0,0,0,0,0,0
2344,517,508,760.0,1,0,0,0,0,0,0,0,0,0
2345,518,510,760.0,1,0,0,0,0,0,0,0,0,0
2346,519,509,760.0,1,0,0,0,0,0,0,0,0,0
2347,522,509,760.0,1,0,0,0,0,0,0,0,0,0
2348,523,512,760.0,1,0,0,0,0,0,0,0,0,0
2349,523,519,760.0,1,0,0,0,0,0,0,0,0,0
2350,522,524,760.0,1,0,0,0,0,0,0,0,0,0
2351,520,524,760.0,1,0,0,0,0,0,0,0,0,0
2352,520,528,760.0,1,0,0,0,0,0,0,0,0,0
2353,519,549,760.0,1,0,0,0,0,0,0,0,0,0
2354,518,572,760.0,1,0,0,0,0,0,0,0,0,0
2355,518,564,760.0,1,0,0,0,0,0,0,0,0,0
2356,517,543,760.0,1,0,0,0,0,0,0,0,0,0
2357,515,517,760.0,1,0,0,0,0,0,0,0,0,0
2358,512,507,760.0,1,0,0,0,0,0,0,0,0,0
2359,510,512,760.0,1,0,0,0,0,0,0,0,0,0
2360,513,509,760.0,1,0,0,0,0,0,0,0,0,0
2361,514,501,760.0,1,0,0,0,0,0,0,0,0,0
2362,516,496,760.0,1,0,0,0,0,0,0,0,0,0
2363,512,489,760.0,1,0,0,0,0,0,0,0,0,0
2364,508,491,760.0,1,0,0,0,0,0,0,0,0,0
2365,513,496,760.0,1,0,0,0,0,0,0,0,0,0
2366,519,496,760.0,1,0,0,0,0,0,0,0,0,0
2367,522,498,760.0,1,0,0,0,0,0,0,0,0,0
2368,522,502,760.0,1,0,0,0,0,0,0,0,0,0
2369,524,503,760.0,1,0,0,0,0,0,0,0,0,0
2370,524,505,760.0,1,0,0,0,0,0,0,0,0,0
2371,523,507,760.0,1,0,0,0,0,0,0,0,0,0
2372,523,506,760.0,1,0,0,0,0,0,0,0,0,0
2373,523,511,760.0,1,0,0,0,0,0,0,0,0,0
2374,524,525,760.0,1,0,0,0,0,0,0,0,0,0
2375,523,547,760.0,1,0,0,0,0,0,0,0,0,0
2376,523,554,760.0,1,0,0,0,0,0,0,0,0,0
2377,525,549,760.0,1,0,0,0,0,0,0,0,0,0
2378,525,547,760.0,1,0,0,0,0,0,0,0,0,0
2379,526,537,760.0,1,0,0,0,0,0,0,0,0,0
2380,523,517,760.0,1,0,0,0,0,0,0,0,0,0
2381,514,506,760.0,1,0,0,0,0,0,0,0,0,0
2382,511,511,760.0,1,0,0,0,0,0,0,0,0,0
2383,515,514,760.0,1,0,0,0,0,0,0,0,0,0
2384,522,514,760.0,1,0,0,0,0,0,0,0,0,0
2385,526,505,760.0,1,0,0,0,0,0,0,0,0,0
2386,528,495,760.0,1,0,0,0,0,0,0,0,0,0
2387,530,496,760.0,1,0,0,0,0,0,0,0,0,0
2388,529,497,760.0,1,0,0,0,0,0,0,0,0,0
2389,526,498,760.0,1,0,0,0,0,0,0,0,0,0
2390,526,503,760.0,1,0,0,0,0,0,0,0,0,0
2391,528,507,760.0,1,0,0,0,0,0,0,0,0,0
2392,531,507,760.0,1,0,0,0,0,0,0,0,0,0
2393,533,517,760.0,1,0,0,0,0,0,0,0,0,0
2394,531,525,760.0,1,0,0,0,0,0,0,0,0,0
2395,530,523,760.0,1,0,0,0,0,0,0,0,0,0
2396,529,509,760.0,1,0,0,0,0,0,0,0,0,0
2397,528,503,760.0,1,0,0,0,0,0,0,0,0,0
2398,528,508,760.0,1,0,0,0,0,0,0,0,0,0
2399,529,506,760.0,1,0,0,0,0,0,0,0,0,0
2400,528,499,760.0,1,0,0,0,0,0,0,0,0,0
2401,528,503,760.0,1,0,0,0,0,0,0,0,0,0
2402,529,514,760.0,1,0,0,0,0,0,0,0,0,0
2403,525,517,760.0,1,0,0,0,0,0,0,0,0,0
2404,524,518,760.0,1,0,0,0,0,0,0,0,0,0
2405,527,515,760.0,1,0,0,0,0,0,0,0,0,0
2406,525,506,760.0,1,0,0,0,0,0,0,0,0,0
2407,522,497,760.0,1,0,0,0,0,0,0,0,0,0
2408,526,515,760.0,1,0,0,0,0,0,0,0,0,0
2409,527,512,760.0,1,0,0,0,0,0,0,0,0,0
2410,527,487,760.0,1,0,0,0,0,0,0,0,0,0
2411,527,480,760.0,1,0,0,0,0,0,0,0,0,0
2412,526,483,760.0,1,0,0,0,0,0,0,0,0,0
2413,526,485,760.0,1,0,0,0,0,0,0,0,0,0
2414,525,490,760.0,1,0,0,0,0,0,0,0,0,0
2415,523,497,760.0,1,0,0,0,0,0,0,0,0,0
2416,522,502,760.0,1,0,0,0,0,0,0,0,0,0
2417,523,502,760.0,1,0,0,0,0,0,0,0,0,0
2418,524,503,760.0,1,0,0,0,0,0,0,0,0,0
2419,524,501,760.0,1,0,0,0,0,0,0,0,0,0
2420,524,506,760.0,1,0,0,0,0,0,0,0,0,0
2421,524,516,760.0,1,0,0,0,0,0,0,0,0,0
2422,522,511,760.0,1,0,0,0,0,0,0,0,0,0
2423,515,500,760.0,1,0,0,0,0,0,0,0,0,0
2424,512,500,760.0,1,0,0,0,0,0,0,0,0,0
2425,514,511,760.0,1,0,0,0,0,0,0,0,0,0
2426,517,505,760.0,1,0,0,0,0,0,0,0,0,0
2427,517,495,760.0,1,0,0,0,0,0,0,0,0,0
2428,518,485,760.0,1,0,0,0,0,0,0,0,0,0
2429,519,487,760.0,1,0,0,0,0,0,0,0,0,0
2430,519,486,760.0,1,0,0,0,0,0,0,0,0,0
2431,519,483,760.0,1,0,0,0,0,0,0,0,0,0
2432,517,488,760.0,1,0,0,0,0,0,0,0,0,0
2433,515,492,760.0,1,0,0,0,0,0,0,0,0,0
2434,513,494,760.0,1,0,0,0,0,0,0,0,0,0
2435,515,496,760.0,1,0,0,0,0,0,0,0,0,0
2436,516,502,760.0,1,0,0,0,0,0,0,0,0,0
2437,515,507,760.0,1,0,0,0,0,0,0,0,0,0
2438,514,509,760.0,1,0,0,0,0,0,0,0,0,0
2439,513,514,760.0,1,0,0,0,0,0,0,0,0,0
2440,511,514,760.0,1,0,0,0,0,0,0,0,0,0
2441,510,514,760.0,1,0,0,0,0,0,0,0,0,0
2442,511,506,760.0,1,0,0,0,0,0,0,0,0,0
2443,512,498,760.0,1,0,0,0,0,0,0,0,0,0
2444,509,494,760.0,1,0,0,0,0,0,0,0,0,0
2445,508,498,760.0,1,0,0,0,0,0,0,0,0,0
2446,510,504,760.0,1,0,0,0,0,0,0,0,0,0
2447,511,510,760.0,1,0,0,0,0,0,0,0,0,0
2448,510,513,760.0,1,0,0,0,0,0,0,0,0,0
2449,510,511,760.0,1,0,0,0,0,0,0,0,0,0
2450,508,511,760.0,1,0,0,0,0,0,0,0,0,0
2451,507,509,760.0,1,0,0,0,0,0,0,0,0,0
2452,504,504,760.0,1,0,0,0,0,0,0,0,0,0
2453,504,503,760.0,1,0,0,0,0,0,0,0,0,0
2454,506,501,760.0,1,0,0,0,0,0,0,0,0,0
2455,508,501,760.0,1,0,0,0,0,0,0,0,0,0
2456,508,505,760.0,1,0,0,0,0,0,0,0,0,0
2457,510,508,760.0,1,0,0,0,0,0,0,0,0,0
2458,511,506,760.0,1,0,0,0,0,0,0,0,0,0
2459,509,510,760.0,1,0,0,0,0,0,0,0,0,0
2460,505,516,760.0,1,0,0,0,0,0,0,0,0,0
2461,504,516,760.0,1,0,0,0,0,0,0,0,0,0
2462,505,505,760.0,1,0,0,0,0,0,0,0,0,0
2463,505,503,760.0,1,0,0,0,0,0,0,0,0,0
2464,507,504,760.0,1,0,0,0,0,0,0,0,0,0
2465,509,506,760.0,1,0,0,0,0,0,0,0,0,0
2466,511,510,760.0,1,0,0,0,0,0,0,0,0,0
2467,510,512,760.0,1,0,0,0,0,0,0,0,0,0
2468,509,513,760.0,1,0,0,0,0,0,0,0,0,0
2469,510,517,760.0,1,0,0,0,0,0,0,0,0,0
2470,511,528,760.0,1,0,0,0,0,0,0,0,0,0
2471,509,526,760.0,1,0,0,0,0,0,0,0,0,0
2472,510,520,760.0,1,0,0,0,0,0,0,0,0,0
2473,513,525,760.0,1,0,0,0,0,0,0,0,0,0
2474,516,526,760.0,1,0,0,0,0,0,0,0,0,0
2475,518,518,760.0,1,0,0,0,0,0,0,0,0,0
2476,516,514,760.0,1,0,0,0,0,0,0,0,0,0
2477,514,511,760.0,1,0,0,0,0,0,0,0,0,0
2478,513,515,760.0,1,0,0,0,0,0,0,0,0,0
2479,508,518,760.0,1,0,0,0,0,0,0,0,0,0
2480,507,518,760.0,1,0,0,0,0,0,0,0,0,0
2481,509,518,760.0,1,0,0,0,0,0,0,0,0,0
2482,506,519,760.0,1,0,0,0,0,0,0,0,0,0
2483,504,520,760.0,1,0,0,0,0,0,0,0,0,0
2484,505,522,760.0,1,0,0,0,0,0,0,0,0,0
2485,503,523,760.0,1,0,0,0,0,0,0,0,0,0
2486,500,524,760.0,1,0,0,0,0,0,0,0,0,0
2487,500,524,760.0,1,0,0,0,0,0,0,0,0,0
2488,501,526,760.0,1,0,0,0,0,0,0,0,0,0
2489,505,521,760.0,1,0,0,0,0,0,0,0,0,0
2490,509,520,760.0,1,0,0,0,0,0,0,0,0,0
2491,505,523,760.0,1,0,0,0,0,0,0,0,0,0
2492,499,524,760.0,1,0,0,0,0,0,0,0,0,0
2493,498,520,760.0,1,0,0,0,0,0,0,0,0,0
2494,499,510,760.0,1,0,0,0,0,0,0,0,0,0
2495,498,507,760.0,1,0,0,0,0,0,0,0,0,0
2496,496,507,760.0,1,0,0,0,0,0,0,0,0,0
2497,495,508,760.0,1,0,0,0,0,0,0,0,0,0
2498,495,511,760.0,1,0,0,0,0,0,0,0,0,0
2499,495,514,760.0,1,0,0,0,0,0,0,0,0,0
2500,497,514,760.0,1,0,0,0,0,0,0,0,0,0
2501,504,515,760.0,1,0,0,0,0,0,0,0,0,0
2502,515,516,760.0,1,0,0,0,0,0,0,0,0,0
2503,528,514,760.0,1,0,0,0,0,0,0,0,0,0
2504,542,509,760.0,1,0,0,0,0,0,0,0,0,0
2505,555,502,760.0,1,0,0,0,0,0,0,0,0,0
2506,577,491,760.0,1,0,0,0,0,0,0,0,0,0
2507,607,481,760.0,1,0,0,0,0,0,0,0,0,0
2508,624,478,760.0,1,0,0,0,0,0,0,0,0,0
2509,616,480,760.0,1,0,0,0,0,0,0,0,0,0
2510,586,486,760.0,1,0,0,0,0,0,0,0,0,0
2511,545,499,760.0,1,0,0,0,0,0,0,0,0,0
2512,507,511,760.0,1,0,0,0,0,0,0,0,0,0
2513,484,516,760.0,1,0,0,0,0,0,0,0,0,0
2514,473,519,760.0,1,0,0,0,0,0,0,0,0,0
2515,466,523,760.0,1,0,0,0,0,0,0,0,0,0
2516,456,517,760.0,1,0,0,0,0,0,0,0,0,0
2517,454,518,760.0,1,0,0,0,0,0,0,0,0,0
2518,459,515,760.0,1,0,0,0,0,0,0,0,0,0
2519,467,509,760.0,1,0,0,0,0,0,0,0,0,0
2520,471,510,760.0,1,0,0,0,0,0,0,0,0,0
2521,472,512,760.0,1,0,0,0,0,0,0,0,0,0
2522,472,513,760.0,1,0,0,0,0,0,0,0,0,0
2523,473,514,760.0,1,0,0,0,0,0,0,0,0,0
2524,475,515,760.0,1,0,0,0,0,0,0,0,0,0
2525,475,516,760.0,1,0,0,0,0,0,0,0,0,0
2526,474,517,760.0,1,0,0,0,0,0,0,0,0,0
2527,478,519,760.0,1,0,0,0,0,0,0,0,0,0
2528,479,518,760.0,1,0,0,0,0,0,0,0,0,0
2529,478,514,760.0,1,0,0,0,0,0,0,0,0,0
2530,479,514,760.0,1,0,0,0,0,0,0,0,0,0
2531,485,517,760.0,1,0,0,0,0,0,0,0,0,0
2532,493,522,760.0,1,0,0,0,0,0,0,0,0,0
2533,494,522,760.0,1,0,0,0,0,0,0,0,0,0
2534,488,522,760.0,1,0,0,0,0,0,0,0,0,0
2535,484,517,760.0,1,0,0,0,0,0,0,0,0,0
2536,483,515,760.0,1,0,0,0,0,0,0,0,0,0
2537,484,519,760.0,1,0,0,0,0,0,0,0,0,0
2538,485,513,760.0,1,0,0,0,0,0,0,0,0,0
2539,486,510,760.0,1,0,0,0,0,0,0,0,0,0
2540,488,513,760.0,1,0,0,0,0,0,0,0,0,0
2541,490,514,760.0,1,0,0,0,0,0,0,0,0,0
2542,492,516,760.0,1,0,0,0,0,0,0,0,0,0
2543,493,517,760.0,1,0,0,0,0,0,0,0,0,0
2544,495,520,760.0,1,0,0,0,0,0,0,0,0,0
2545,498,520,760.0,1,0,0,0,0,0,0,0,0,0
2546,499,518,760.0,1,0,0,0,0,0,0,0,0,0
2547,496,515,760.0,1,0,0,0,0,0,0,0,0,0
2548,499,516,760.0,1,0,0,0,0,0,0,0,0,0
2549,502,516,760.0,1,0,0,0,0,0,0,0,0,0
2550,493,515,760.0,1,0,0,0,0,0,0,0,0,0
2551,486,513,760.0,1,0,0,0,0,0,0,0,0,0
2552,485,512,760.0,1,0,0,0,0,0,0,0,0,0
2553,485,514,760.0,1,0,0,0,0,0,0,0,0,0
2554,488,512,760.0,1,0,0,0,0,0,0,0,0,0
2555,493,512,760.0,1,0,0,0,0,0,0,0,0,0
2556,495,516,760.0,1,0,0,0,0,0,0,0,0,0
2557,493,515,760.0,1,0,0,0,0,0,0,0,0,0
2558,492,511,760.0,1,0,0,0,0,0,0,0,0,0
2559,489,511,760.0,1,0,0,0,0,0,0,0,0,0
2560,490,514,760.0,1,0,0,0,0,0,0,0,0,0
2561,493,515,760.0,1,0,0,0,0,0,0,0,0,0
2562,494,513,760.0,1,0,0,0,0,0,0,0,0,0
2563,493,508,760.0,1,0,0,0,0,0,0,0,0,0
2564,491,506,760.0,1,0,0,0,0,0,0,0,0,0
2565,492,508,760.0,1,0,0,0,0,0,0,0,0,0
2566,495,508,760.0,1,0,0,0,0,0,0,0,0,0
2567,500,509,760.0,1,0,0,0,0,0,0,0,0,0
2568,502,509,760.0,1,0,0,0,0,0,0,0,0,0
2569,502,509,760.0,1,0,0,0,0,0,0,0,0,0
2570,502,508,760.0,1,0,0,0,0,0,0,0,0,0
2571,505,507,760.0,1,0,0,0,0,0,0,0,0,0
2572,503,507,760.0,1,0,0,0,0,0,0,0,0,0
2573,492,507,760.0,1,0,0,0,0,0,0,0,0,0
2574,487,507,760.0,1,0,0,0,0,0,0,0,0,0
2575,490,508,760.0,1,0,0,0,0,0,0,0,0,0
2576,493,508,760.0,1,0,0,0,0,0,0,0,0,0
2577,494,507,760.0,1,0,0,0,0,0,0,0,0,0
2578,492,506,760.0,1,0,0,0,0,0,0,0,0,0
2579,490,506,760.0,1,0,0,0,0,0,0,0,0,0
2580,492,505,760.0,1,0,0,0,0,0,0,0,0,0
2581,493,506,760.0,1,0,0,0,0,0,0,0,0,0
2582,492,506,760.0,1,0,0,0,0,0,0,0,0,0
2583,491,506,760.0,1,0,0,0,0,0,0,0,0,0
2584,492,505,760.0,1,0,0,0,0,0,0,0,0,0
2585,494,505,760.0,1,0,0,0,0,0,0,0,0,0
2586,497,505,760.0,1,0,0,0,0,0,0,0,0,0
2587,499,507,760.0,1,0,0,0,0,0,0,0,0,0
2588,495,507,760.0,1,0,0,0,0,0,0,0,0,0
2589,491,508,760.0,1,0,0,0,0,0,0,0,0,0
2590,488,511,760.0,1,0,0,0,0,0,0,0,0,0
2591,488,513,760.0,1,0,0,0,0,0,0,0,0,0
2592,489,512,760.0,1,0,0,0,0,0,0,0,0,0
2593,489,512,760.0,1,0,0,0,0,0,0,0,0,0
2594,491,513,760.0,1,0,0,0,0,0,0,0,0,0
2595,491,514,760.0,1,0,0,0,0,0,0,0,0,0
2596,490,516,760.0,1,0,0,0,0,0,0,0,0,0
2597,489,517,760.0,1,0,0,0,0,0,0,0,0,0
2598,489,516,760.0,1,0,0,0,0,0,0,0,0,0
2599,487,515,760.0,1,0,0,0,0,0,0,0,0,0
2600,486,515,760.0,1,0,0,0,0,0,0,0,0,0
2601,487,515,760.0,1,0,0,0,0,0,0,0,0,0
2602,489,515,760.0,1,0,0,0,0,0,0,0,0,0
2603,493,515,760.0,1,0,0,0,0,0,0,0,0,0
2604,494,514,760.0,1,0,0,0,0,0,0,0,0,0
2605,491,513,760.0,1,0,0,0,0,0,0,0,0,0
2606,486,514,760.0,1,0,0,0,0,0,0,0,0,0
2607,484,513,760.0,1,0,0,0,0,0,0,0,0,0
2608,486,511,760.0,1,0,0,0,0,0,0,0,0,0
2609,487,511,760.0,1,0,0,0,0,0,0,0,0,0
2610,488,510,760.0,1,0,0,0,0,0,0,0,0,0
2611,489,509,760.0,1,0,0,0,0,0,0,0,0,0
2612,490,509,760.0,1,0,0,0,0,0,0,0,0,0
2613,492,509,760.0,1,0,0,0,0,0,0,0,0,0
2614,493,509,760.0,1,0,0,0,0,0,0,0,0,0
2615,492,509,760.0,1,0,0,0,0,0,0,0,0,0
2616,493,509,760.0,1,0,0,0,0,0,0,0,0,0
2617,493,509,760.0,1,0,0,0,0,0,0,0,0,0
2618,494,508,760.0,1,0,0,0,0,0,0,0,0,0
2619,495,508,760.0,1,0,0,0,0,0,0,0,0,0
2620,497,506,760.0,1,0,0,0,0,0,0,0,0,0
2621,498,506,760.0,1,0,0,0,0,0,0,0,0,0
2622,498,505,760.0,1,0,0,0,0,0,0,0,0,0
2623,498,504,760.0,1,0,0,0,0,0,0,0,0,0
2624,498,504,760.0,1,0,0,0,0,0,0,0,0,0
2625,499,504,760.0,1,0,0,0,0,0,0,0,0,0
2626,499,505,760.0,1,0,0,0,0,0,0,0,0,0
2627,499,505,760.0,1,0,0,0,0,0,0,0,0,0
2628,501,503,760.0,1,0,0,0,0,0,0,0,0,0
2629,502,504,760.0,1,0,0,0,0,0,0,0,0,0
2630,501,506,760.0,1,0,0,0,0,0,0,0,0,0
2631,501,506,760.0,1,0,0,0,0,0,0,0,0,0
2632,502,506,760.0,1,0,0,0,0,0,0,0,0,0
2633,503,506,760.0,1,0,0,0,0,0,0,0,0,0
2634,507,507,760.0,1,0,0,0,0,0,0,0,0,0
2635,509,507,760.0,1,0,0,0,0,0,0,0,0,0
2636,504,506,760.0,1,0,0,0,0,0,0,0,0,0
2637,498,504,760.0,1,0,0,0,0,0,0,0,0,0
2638,496,503,760.0,1,0,0,0,0,0,0,0,0,0
2639,496,502,760.0,1,0,0,0,0,0,0,0,0,0
2640,498,505,760.0,1,0,0,0,0,0,0,0,0,0
2641,500,507,760.0,1,0,0,0,0,0,0,0,0,0
2642,501,508,760.0,1,0,0,0,0,0,0,0,0,0
2643,502,508,760.0,1,0,0,0,0,0,0,0,0,0
2644,502,506,760.0,1,0,0,0,0,0,0,0,0,0
2645,503,505,760.0,1,0,0,0,0,0,0,0,0,0
2646,505,506,760.0,1,0,0,0,0,0,0,0,0,0
2647,506,508,760.0,1,0,0,0,0,0,0,0,0,0
2648,504,510,760.0,1,0,0,0,0,0,0,0,0,0
2649,503,509,760.0,1,0,0,0,0,0,0,0,0,0
2650,503,508,760.0,1,0,0,0,0,0,0,0,0,0
2651,503,508,760.0,1,0,0,0,0,0,0,0,0,0
2652,503,506,760.0,1,0,0,0,0,0,0,0,0,0
2653,503,506,760.0,1,0,0,0,0,0,0,0,0,0
2654,503,505,760.0,1,0,0,0,0,0,0,0,0,0
2655,504,507,760.0,1,0,0,0,0,0,0,0,0,0
2656,504,508,760.0,1,0,0,0,0,0,0,0,0,0
2657,502,508,760.0,1,0,0,0,0,0,0,0,0,0
2658,502,508,760.0,1,0,0,0,0,0,0,0,0,0
2659,502,508,760.0,1,0,0,0,0,0,0,0,0,0
2660,501,508,760.0,1,0,0,0,0,0,0,0,0,0
2661,501,508,760.0,1,0,0,0,0,0,0,0,0,0
2662,500,508,760.0,1,0,0,0,0,0,0,0,0,0
2663,501,509,760.0,1,0,0,0,0,0,0,0,0,0
2664,503,510,760.0,1,0,0,0,0,0,0,0,0,0
2665,503,511,760.0,1,0,0,0,0,0,0,0,0,0
2666,504,512,760.0,1,0,0,0,0,0,0,0,0,0
2667,503,512,760.0,1,0,0,0,0,0,0,0,0,0
2668,503,512,760.0,1,0,0,0,0,0,0,0,0,0
2669,504,512,760.0,1,0,0,0,0,0,0,0,0,0
2670,506,511,760.0,1,0,0,0,0,0,0,0,0,0
2671,508,511,760.0,1,0,0,0,0,0,0,0,0,0
2672,508,509,760.0,1,0,0,0,0,0,0,0,0,0
2673,506,510,760.0,1,0,0,0,0,0,0,0,0,0
2674,505,510,760.0,1,0,0,0,0,0,0,0,0,0
2675,505,510,760.0,1,0,0,0,0,0,0,0,0,0
2676,505,510,760.0,1,0,0,0,0,0,0,0,0,0
2677,505,510,760.0,1,0,0,0,0,0,0,0,0,0
2678,505,510,760.0,1,0,0,0,0,0,0,0,0,0
2679,505,511,760.0,1,0,0,0,0,0,0,0,0,0
2680,506,511,760.0,1,0,0,0,0,0,0,0,0,0
2681,507,511,760.0,1,0,0,0,0,0,0,0,0,0
2682,508,510,760.0,1,0,0,0,0,0,0,0,0,0
2683,509,509,760.0,1,0,0,0,0,0,0,0,0,0
2684,507,508,760.0,1,0,0,0,0,0,0,0,0,0
2685,508,509,760.0,1,0,0,0,0,0,0,0,0,0
2686,509,510,760.0,1,0,0,0,0,0,0,0,0,0
2687,509,509,760.0,1,0,0,0,0,0,0,0,0,0
2688,510,509,760.0,1,0,0,0,0,0,0,0,0,0
2689,512,509,760.0,1,0,0,0,0,0,0,0,0,0
2690,515,509,760.0,1,0,0,0,0,0,0,0,0,0
2691,515,509,760.0,1,0,0,0,0,0,0,0,0,0
2692,511,510,760.0,1,0,0,0,0,0,0,0,0,0
2693,508,509,760.0,1,0,0,0,0,0,0,0,0,0
2694,507,509,760.0,1,0,0,0,0,0,0,0,0,0
2695,506,510,760.0,1,0,0,0,0,0,0,0,0,0
2696,505,510,760.0,1,0,0,0,0,0,0,0,0,0
2697,505,510,760.0,1,0,0,0,0,0,0,0,0,0
2698,505,510,760.0,1,0,0,0,0,0,0,0,0,0
2699,506,510,760.0,1,0,0,0,0,0,0,0,0,0
2700,506,509,760.0,1,0,0,0,0,0,0,0,0,0
2701,507,509,760.0,1,0,0,0,0,0,0,0,0,0
2702,507,510,760.0,1,0,0,0,0,0,0,0,0,0
2703,507,511,760.0,1,0,0,0,0,0,0,0,0,0
2704,507,511,760.0,1,0,0,0,0,0,0,0,0,0
2705,507,511,759.0,1,0,0,0,0,0,0,0,0,0
2706,507,512,760.0,1,0,0,0,0,0,0,0,0,0
2707,507,513,760.0,1,0,0,0,0,0,0,0,0,0
2708,509,514,760.0,1,0,0,0,0,0,0,0,0,0
2709,509,513,760.0,1,0,0,0,0,0,0,0,0,0
2710,509,513,760.0,1,0,0,0,0,0,0,0,0,0
2711,508,513,760.0,1,0,0,0,0,0,0,0,0,0
2712,507,514,760.0,1,0,0,0,0,0,0,0,0,0
2713,509,512,760.0,1,0,0,0,0,0,0,0,0,0
2714,510,509,760.0,1,0,0,0,0,0,0,0,0,0
2715,511,508,760.0,1,0,0,0,0,0,0,0,0,0
2716,511,509,760.0,1,0,0,0,0,0,0,0,0,0
2717,510,510,760.0,1,0,0,0,0,0,0,0,0,0
2718,508,510,760.0,1,0,0,0,0,0,0,0,0,0
2719,507,510,760.0,1,0,0,0,0,0,0,0,0,0
2720,507,510,759.0,1,0,0,0,0,0,0,0,0,0
2721,507,509,760.0,1,0,0,0,0,0,0,0,0,0
2722,507,509,760.0,1,0,0,0,0,0,0,0,0,0
2723,506,508,760.0,1,0,0,0,0,0,0,0,0,0
2724,506,507,760.0,1,0,0,0,0,0,0,0,0,0
2725,508,507,760.0,1,0,0,0,0,0,0,0,0,0
2726,512,506,760.0,1,0,0,0,0,0,0,0,0,0
2727,514,506,760.0,1,0,0,0,0,0,0,0,0,0
2728,515,507,760.0,1,0,0,0,0,0,0,0,0,0
2729,517,508,760.0,1,0,0,0,0,0,0,0,0,0
2730,520,508,760.0,1,0,0,0,0,0,0,0,0,0
2731,521,505,760.0,1,0,0,0,0,0,0,0,0,0
2732,520,505,760.0,1,0,0,0,0,0,0,0,0,0
2733,519,506,760.0,1,0,0,0,0,0,0,0,0,0
2734,517,506,760.0,1,0,0,0,0,0,0,0,0,0
2735,516,505,760.0,1,0,0,0,0,0,0,0,0,0
2736,515,504,760.0,1,0,0,0,0,0,0,0,0,0
2737,514,505,760.0,1,0,0,0,0,0,0,0,0,0
2738,517,507,760.0,1,0,0,0,0,0,0,0,0,0
2739,518,507,760.0,1,0,0,0,0,0,0,0,0,0
2740,512,505,760.0,1,0,0,0,0,0,0,0,0,0
2741,509,504,760.0,1,0,0,0,0,0,0,0,0,0
2742,510,504,760.0,1,0,0,0,0,0,0,0,0,0
2743,507,504,760.0,1,0,0,0,0,0,0,0,0,0
2744,500,505,760.0,1,0,0,0,0,0,0,0,0,0
2745,495,505,760.0,1,0,0,0,0,0,0,0,0,0
2746,494,505,760.0,1,0,0,0,0,0,0,0,0,0
2747,497,505,760.0,1,0,0,0,0,0,0,0,0,0
2748,498,504,760.0,1,0,0,0,0,0,0,0,0,0
2749,499,503,760.0,1,0,0,0,0,0,0,0,0,0
2750,500,504,760.0,1,0,0,0,0,0,0,0,0,0
2751,502,503,760.0,1,0,0,0,0,0,0,0,0,0
2752,503,504,760.0,1,0,0,0,0,0,0,0,0,0
2753,504,504,760.0,1,0,0,0,0,0,0,0,0,0
2754,506,504,760.0,1,0,0,0,0,0,0,0,0,0
2755,510,505,760.0,1,0,0,0,0,0,0,0,0,0
2756,516,504,760.0,1,0,0,0,0,0,0,0,0,0
2757,526,502,760.0,1,0,0,0,0,0,0,0,0,0
2758,540,498,760.0,1,0,0,0,0,0,0,0,0,0
2759,556,494,760.0,1,0,0,0,0,0,0,0,0,0
2760,581,487,760.0,1,0,0,0,0,0,0,0,0,0
2761,612,478,760.0,1,0,0,0,0,0,0,0,0,0
2762,635,472,760.0,1,0,0,0,0,0,0,0,0,0
2763,633,471,760.0,1,0,0,0,0,0,0,0,0,0
2764,609,475,760.0,1,0,0,0,0,0,0,0,0,0
2765,570,485,760.0,1,0,0,0,0,0,0,0,0,0
2766,528,498,760.0,1,0,0,0,0,0,0,0,0,0
2767,497,509,760.0,1,0,0,0,0,0,0,0,0,0
2768,479,515,760.0,1,0,0,0,0,0,0,0,0,0
2769,467,518,760.0,1,0,0,0,0,0,0,0,0,0
2770,456,520,760.0,1,0,0,0,0,0,0,0,0,0
2771,455,521,760.0,1,0,0,0,0,0,0,0,0,0
2772,467,519,760.0,1,0,0,0,0,0,0,0,0,0
2773,477,518,760.0,1,0,0,0,0,0,0,0,0,0
2774,482,516,760.0,1,0,0,0,0,0,0,0,0,0
2775,486,515,760.0,1,0,0,0,0,0,0,0,0,0
2776,488,515,760.0,1,0,0,0,0,0,0,0,0,0
2777,487,516,760.0,1,0,0,0,0,0,0,0,0,0
2778,480,519,760.0,1,0,0,0,0,0,0,0,0,0
2779,475,523,760.0,1,0,0,0,0,0,0,0,0,0
2780,475,521,760.0,1,0,0,0,0,0,0,0,0,0
2781,477,515,760.0,1,0,0,0,0,0,0,0,0,0
2782,479,512,760.0,1,0,0,0,0,0,0,0,0,0
2783,480,511,760.0,1,0,0,0,0,0,0,0,0,0
2784,482,512,760.0,1,0,0,0,0,0,0,0,0,0
2785,484,511,760.0,1,0,0,0,0,0,0,0,0,0
2786,487,510,760.0,1,0,0,0,0,0,0,0,0,0
2787,488,511,760.0,1,0,0,0,0,0,0,0,0,0
2788,489,512,760.0,1,0,0,0,0,0,0,0,0,0
2789,490,513,760.0,1,0,0,0,0,0,0,0,0,0
2790,492,514,760.0,1,0,0,0,0,0,0,0,0,0
2791,493,514,760.0,1,0,0,0,0,0,0,0,0,0
2792,494,515,760.0,1,0,0,0,0,0,0,0,0,0
2793,495,515,760.0,1,0,0,0,0,0,0,0,0,0
2794,496,515,760.0,1,0,0,0,0,0,0,0,0,0
2795,498,514,760.0,1,0,0,0,0,0,0,0,0,0
2796,503,512,760.0,1,0,0,0,0,0,0,0,0,0
2797,507,514,760.0,1,0,0,0,0,0,0,0,0,0
2798,505,516,760.0,1,0,0,0,0,0,0,0,0,0
2799,499,517,760.0,1,0,0,0,0,0,0,0,0,0
2800,493,517,760.0,1,0,0,0,0,0,0,0,0,0
2801,492,518,760.0,1,0,0,0,0,0,0,0,0,0
2802,494,519,760.0,1,0,0,0,0,0,0,0,0,0
2803,497,519,760.0,1,0,0,0,0,0,0,0,0,0
2804,501,519,760.0,1,0,0,0,0,0,0,0,0,0
2805,504,520,760.0,1,0,0,0,0,0,0,0,0,0
2806,505,520,760.0,1,0,0,0,0,0,0,0,0,0
2807,505,519,760.0,1,0,0,0,0,0,0,0,0,0
2808,505,520,760.0,1,0,0,0,0,0,0,0,0,0
2809,506,520,760.0,1,0,0,0,0,0,0,0,0,0
2810,507,521,760.0,1,0,0,0,0,0,0,0,0,0
2811,507,521,760.0,1,0,0,0,0,0,0,0,0,0
2812,507,522,760.0,1,0,0,0,0,0,0,0,0,0
2813,508,522,760.0,1,0,0,0,0,0,0,0,0,0
2814,508,521,760.0,1,0,0,0,0,0,0,0,0,0
2815,510,520,760.0,1,0,0,0,0,0,0,0,0,0
2816,512,521,760.0,1,0,0,0,0,0,0,0,0,0
2817,512,523,760.0,1,0,0,0,0,0,0,0,0,0
2818,511,526,760.0,1,0,0,0,0,0,0,0,0,0
2819,509,529,760.0,1,0,0,0,0,0,0,0,0,0
2820,510,528,760.0,1,0,0,0,0,0,0,0,0,0
2821,509,524,760.0,1,0,0,0,0,0,0,0,0,0
2822,508,522,760.0,1,0,0,0,0,0,0,0,0,0
2823,510,521,760.0,1,0,0,0,0,0,0,0,0,0
2824,512,518,760.0,1,0,0,0,0,0,0,0,0,0
2825,514,515,760.0,1,0,0,0,0,0,0,0,0,0
2826,516,515,760.0,1,0,0,0,0,0,0,0,0,0
2827,515,515,760.0,1,0,0,0,0,0,0,0,0,0
2828,514,514,760.0,1,0,0,0,0,0,0,0,0,0
2829,514,515,760.0,1,0,0,0,0,0,0,0,0,0
2830,513,516,760.0,1,0,0,0,0,0,0,0,0,0
2831,512,517,760.0,1,0,0,0,0,0,0,0,0,0
2832,512,518,760.0,1,0,0,0,0,0,0,0,0,0
2833,514,518,760.0,1,0,0,0,0,0,0,0,0,0
2834,516,517,760.0,1,0,0,0,0,0,0,0,0,0
2835,517,517,760.0,1,0,0,0,0,0,0,0,0,0
2836,516,517,760.0,1,0,0,0,0,0,0,0,0,0
2837,511,515,760.0,1,0,0,0,0,0,0,0,0,0
2838,507,514,760.0,1,0,0,0,0,0,0,0,0,0
2839,505,514,760.0,1,0,0,0,0,0,0,0,0,0
2840,505,514,760.0,1,0,0,0,0,0,0,0,0,0
2841,507,514,760.0,1,0,0,0,0,0,0,0,0,0
2842,507,515,760.0,1,0,0,0,0,0,0,0,0,0
2843,505,517,760.0,1,0,0,0,0,0,0,0,0,0
2844,504,517,760.0,1,0,0,0,0,0,0,0,0,0
2845,503,517,760.0,1,0,0,0,0,0,0,0,0,0
2846,504,515,760.0,1,0,0,0,0,0,0,0,0,0
2847,504,512,760.0,1,0,0,0,0,0,0,0,0,0
2848,504,512,760.0,1,0,0,0,0,0,0,0,0,0
2849,505,513,760.0,1,0,0,0,0,0,0,0,0,0
2850,504,513,760.0,1,0,0,0,0,0,0,0,0,0
2851,504,514,760.0,1,0,0,0,0,0,0,0,0,0
2852,504,514,760.0,1,0,0,0,0,0,0,0,0,0
2853,504,514,760.0,1,0,0,0,0,0,0,0,0,0
2854,503,514,760.0,1,0,0,0,0,0,0,0,0,0
2855,502,514,760.0,1,0,0,0,0,0,0,0,0,0
2856,501,515,760.0,1,0,0,0,0,0,0,0,0,0
2857,501,515,760.0,1,0,0,0,0,0,0,0,0,0
2858,501,514,760.0,1,0,0,0,0,0,0,0,0,0
2859,501,515,760.0,1,0,0,0,0,0,0,0,0,0
2860,501,515,760.0,1,0,0,0,0,0,0,0,0,0
2861,501,515,760.0,1,0,0,0,0,0,0,0,0,0
2862,503,514,760.0,1,0,0,0,0,0,0,0,0,0
2863,506,511,760.0,1,0,0,0,0,0,0,0,0,0
2864,505,510,760.0,1,0,0,0,0,0,0,0,0,0
2865,500,511,760.0,1,0,0,0,0,0,0,0,0,0
2866,497,512,760.0,1,0,0,0,0,0,0,0,0,0
2867,498,512,760.0,1,0,0,0,0,0,0,0,0,0
2868,499,512,760.0,1,0,0,0,0,0,0,0,0,0
2869,499,511,760.0,1,0,0,0,0,0,0,0,0,0
2870,500,511,760.0,1,0,0,0,0,0,0,0,0,0
2871,501,510,760.0,1,0,0,0,0,0,0,0,0,0
2872,503,510,760.0,1,0,0,0,0,0,0,0,0,0
2873,505,511,760.0,1,0,0,0,0,0,0,0,0,0
2874,505,510,760.0,1,0,0,0,0,0,0,0,0,0
2875,506,510,760.0,1,0,0,0,0,0,0,0,0,0
2876,508,510,760.0,1,0,0,0,0,0,0,0,0,0
2877,509,509,760.0,1,0,0,0,0,0,0,0,0,0
2878,510,509,760.0,1,0,0,0,0,0,0,0,0,0
2879,511,508,760.0,1,0,0,0,0,0,0,0,0,0
2880,511,508,760.0,1,0,0,0,0,0,0,0,0,0
2881,511,508,760.0,1,0,0,0,0,0,0,0,0,0
2882,511,511,760.0,1,0,0,0,0,0,0,0,0,0
2883,511,511,760.0,1,0,0,0,0,0,0,0,0,0
2884,511,507,760.0,1,0,0,0,0,0,0,0,0,0
2885,512,505,760.0,1,0,0,0,0,0,0,0,0,0
2886,512,505,760.0,1,0,0,0,0,0,0,0,0,0
2887,512,507,760.0,1,0,0,0,0,0,0,0,0,0
2888,512,507,760.0,1,0,0,0,0,0,0,0,0,0
2889,513,506,760.0,1,0,0,0,0,0,0,0,0,0
2890,513,507,760.0,1,0,0,0,0,0,0,0,0,0
2891,514,506,760.0,1,0,0,0,0,0,0,0,0,0
2892,513,507,760.0,1,0,0,0,0,0,0,0,0,0
2893,513,505,760.0,1,0,0,0,0,0,0,0,0,0
2894,513,506,760.0,1,0,0,0,0,0,0,0,0,0
2895,513,508,760.0,1,0,0,0,0,0,0,0,0,0
2896,513,508,760.0,1,0,0,0,0,0,0,0,0,0
2897,513,507,760.0,1,0,0,0,0,0,0,0,0,0
2898,513,505,760.0,1,0,0,0,0,0,0,0,0,0
2899,513,506,760.0,1,0,0,0,0,0,0,0,0,0
2900,512,506,760.0,1,0,0,0,0,0,0,0,0,0
2901,512,507,760.0,1,0,0,0,0,0,0,0,0,0
2902,513,508,760.0,1,0,0,0,0,0,0,0,0,0
2903,515,508,760.0,1,0,0,0,0,0,0,0,0,0
2904,516,508,760.0,1,0,0,0,0,0,0,0,0,0
2905,514,509,760.0,1,0,0,0,0,0,0,0,0,0
2906,513,509,760.0,1,0,0,0,0,0,0,0,0,0
2907,513,509,760.0,1,0,0,0,0,0,0,0,0,0
2908,515,508,760.0,1,0,0,0,0,0,0,0,0,0
2909,515,508,760.0,1,0,0,0,0,0,0,0,0,0
2910,510,509,760.0,1,0,0,0,0,0,0,0,0,0
2911,506,509,759.0,1,0,0,0,0,0,0,0,0,0
2912,506,509,760.0,1,0,0,0,0,0,0,0,0,0
2913,506,510,760.0,1,0,0,0,0,0,0,0,0,0
2914,507,509,760.0,1,0,0,0,0,0,0,0,0,0
2915,508,510,759.0,1,0,0,0,0,0,0,0,0,0
2916,508,509,760.0,1,0,0,0,0,0,0,0,0,0
2917,509,510,759.0,1,0,0,0,0,0,0,0,0,0
2918,509,512,760.0,1,0,0,0,0,0,0,0,0,0
2919,508,512,759.0,1,0,0,0,0,0,0,0,0,0
2920,509,512,760.0,1,0,0,0,0,0,0,0,0,0
2921,509,512,760.0,1,0,0,0,0,0,0,0,0,0
2922,510,512,760.0,1,0,0,0,0,0,0,0,0,0
2923,510,513,760.0,1,0,0,0,0,0,0,0,0,0
2924,512,513,760.0,1,0,0,0,0,0,0,0,0,0
2925,512,513,759.0,1,0,0,0,0,0,0,0,0,0
2926,512,513,759.0,1,0,0,0,0,0,0,0,0,0
2927,511,513,759.0,1,0,0,0,0,0,0,0,0,0
2928,511,513,759.0,1,0,0,0,0,0,0,0,0,0
2929,511,513,759.0,1,0,0,0,0,0,0,0,0,0
2930,511,514,759.0,1,0,0,0,0,0,0,0,0,0
2931,511,514,759.0,1,0,0,0,0,0,0,0,0,0
2932,511,514,759.0,1,0,0,0,0,0,0,0,0,0
2933,511,514,759.0,1,0,0,0,0,0,0,0,0,0
2934,511,514,759.0,1,0,0,0,0,0,0,0,0,0
2935,510,514,759.0,1,0,0,0,0,0,0,0,0,0
2936,511,514,759.0,1,0,0,0,0,0,0,0,0,0
2937,512,514,759.0,1,0,0,0,0,0,0,0,0,0
2938,510,514,759.0,1,0,0,0,0,0,0,0,0,0
2939,510,513,759.0,1,0,0,0,0,0,0,0,0,0
2940,510,512,759.0,1,0,0,0,0,0,0,0,0,0
2941,510,512,759.0,1,0,0,0,0,0,0,0,0,0
2942,511,513,759.0,1,0,0,0,0,0,0,0,0,0
2943,511,512,759.0,1,0,0,0,0,0,0,0,0,0
2944,511,512,759.0,1,0,0,0,0,0,0,0,0,0
2945,511,512,759.0,1,0,0,0,0,0,0,0,0,0
2946,511,511,759.0,1,0,0,0,0,0,0,0,0,0
2947,512,513,759.0,1,0,0,0,0,0,0,0,0,0
2948,513,514,759.0,1,0,0,0,0,0,0,0,0,0
2949,513,513,759.0,1,0,0,0,0,0,0,0,0,0
