TimeStamp,ECG Data,EMG Data,EDA Data,lowGamma,highGamma,highAlpha,delta,highBeta,lowAlpha,lowBeta,theta,attention,meditation
0,506,514,832.0,1,0,0,0,0,0,0,0,0,0
1,506,515,831.0,1,0,0,0,0,0,0,0,0,0
2,506,518,831.0,1,0,0,0,0,0,0,0,0,0
3,506,520,831.0,1,0,0,0,0,0,0,0,0,0
4,506,521,831.0,1,0,0,0,0,0,0,0,0,0
5,506,523,831.0,1,0,0,0,0,0,0,0,0,0
6,506,524,830.0,1,0,0,0,0,0,0,0,0,0
7,505,524,830.0,1,0,0,0,0,0,0,0,0,0
8,505,524,830.0,1,0,0,0,0,0,0,0,0,0
9,506,523,830.0,1,0,0,0,0,0,0,0,0,0
10,507,523,829.0,1,0,0,0,0,0,0,0,0,0
11,507,524,829.0,1,0,0,0,0,0,0,0,0,0
12,507,524,829.0,1,0,0,0,0,0,0,0,0,0
13,508,522,828.0,1,0,0,0,0,0,0,0,0,0
14,510,521,828.0,1,0,0,0,0,0,0,0,0,0
15,514,519,828.0,1,0,0,0,0,0,0,0,0,0
16,521,517,828.0,1,0,0,0,0,0,0,0,0,0
17,533,512,827.0,1,0,0,0,0,0,0,0,0,0
18,550,503,827.0,1,0,0,0,0,0,0,0,0,0
19,573,492,827.0,1,0,0,0,0,0,0,0,0,0
20,600,480,827.0,1,0,0,0,0,0,0,0,0,0
21,621,472,827.0,1,0,0,0,0,0,0,0,0,0
22,622,472,826.0,1,0,0,0,0,0,0,0,0,0
23,604,481,826.0,1,0,0,0,0,0,0,0,0,0
24,577,494,826.0,1,0,0,0,0,0,0,0,0,0
25,544,508,826.0,1,0,0,0,0,0,0,0,0,0
26,514,519,825.0,1,0,0,0,0,0,0,0,0,0
27,496,524,825.0,1,0,0,0,0,0,0,0,0,0
28,482,527,825.0,1,0,0,0,0,0,0,0,0,0
29,473,528,825.0,1,0,0,0,0,0,0,0,0,0
30,468,526,825.0,1,0,0,0,0,0,0,0,0,0
31,468,525,824.0,1,0,0,0,0,0,0,0,0,0
32,475,522,824.0,1,0,0,0,0,0,0,0,0,0
33,481,519,824.0,1,0,0,0,0,0,0,0,0,0
34,485,519,824.0,1,0,0,0,0,0,0,0,0,0
35,485,517,824.0,1,0,0,0,0,0,0,0,0,0
36,485,517,824.0,1,0,0,0,0,0,0,0,0,0
37,485,516,823.0,1,0,0,0,0,0,0,0,0,0
38,486,516,823.0,1,0,0,0,0,0,0,0,0,0
39,487,515,823.0,1,0,0,0,0,0,0,0,0,0
40,490,516,823.0,1,0,0,0,0,0,0,0,0,0
41,491,516,823.0,1,0,0,0,0,0,0,0,0,0
42,492,515,823.0,1,0,0,0,0,0,0,0,0,0
43,492,514,823.0,1,0,0,0,0,0,0,0,0,0
44,493,512,822.0,1,0,0,0,0,0,0,0,0,0
45,493,512,823.0,1,0,0,0,0,0,0,0,0,0
46,494,511,822.0,1,0,0,0,0,0,0,0,0,0
47,495,511,822.0,1,0,0,0,0,0,0,0,0,0
48,496,511,822.0,1,0,0,0,0,0,0,0,0,0
49,497,511,822.0,1,0,0,0,0,0,0,0,0,0
50,499,512,822.0,1,0,0,0,0,0,0,0,0,0
51,499,512,822.0,1,0,0,0,0,0,0,0,0,0
52,498,513,822.0,1,0,0,0,0,0,0,0,0,0
53,499,512,822.0,1,0,0,0,0,0,0,0,0,0
54,499,511,822.0,1,0,0,0,0,0,0,0,0,0
55,500,511,822.0,1,0,0,0,0,0,0,0,0,0
56,502,509,822.0,1,0,0,0,0,0,0,0,0,0
57,502,509,821.0,1,0,0,0,0,0,0,0,0,0
58,503,509,821.0,1,0,0,0,0,0,0,0,0,0
59,502,508,821.0,1,0,0,0,0,0,0,0,0,0
60,503,508,821.0,1,0,0,0,0,0,0,0,0,0
61,505,508,821.0,1,0,0,0,0,0,0,0,0,0
62,505,507,821.0,1,0,0,0,0,0,0,0,0,0
63,506,507,821.0,1,0,0,0,0,0,0,0,0,0
64,507,508,821.0,1,0,0,0,0,0,0,0,0,0
65,507,508,821.0,1,0,0,0,0,0,0,0,0,0
66,507,508,821.0,1,0,0,0,0,0,0,0,0,0
67,508,507,821.0,1,0,0,0,0,0,0,0,0,0
68,509,508,821.0,1,0,0,0,0,0,0,0,0,0
69,510,508,821.0,1,0,0,0,0,0,0,0,0,0
70,509,506,821.0,1,0,0,0,0,0,0,0,0,0
71,510,505,821.0,1,0,0,0,0,0,0,0,0,0
72,510,506,821.0,1,0,0,0,0,0,0,0,0,0
73,509,506,820.0,1,0,0,0,0,0,0,0,0,0
74,509,507,820.0,1,0,0,0,0,0,0,0,0,0
75,510,506,820.0,1,0,0,0,0,0,0,0,0,0
76,510,506,820.0,1,0,0,0,0,0,0,0,0,0
77,512,506,820.0,1,0,0,0,0,0,0,0,0,0
78,513,506,820.0,1,0,0,0,0,0,0,0,0,0
79,513,506,820.0,1,0,0,0,0,0,0,0,0,0
80,513,506,820.0,1,0,0,0,0,0,0,0,0,0
81,515,506,820.0,1,0,0,0,0,0,0,0,0,0
82,516,506,820.0,1,0,0,0,0,0,0,0,0,0
83,516,506,820.0,1,0,0,0,0,0,0,0,0,0
84,516,506,820.0,1,0,0,0,0,0,0,0,0,0
85,516,507,820.0,1,0,0,0,0,0,0,0,0,0
86,516,507,820.0,1,0,0,0,0,0,0,0,0,0
87,516,506,820.0,1,0,0,0,0,0,0,0,0,0
88,516,507,820.0,1,0,0,0,0,0,0,0,0,0
89,515,507,820.0,1,0,0,0,0,0,0,0,0,0
90,515,507,820.0,1,0,0,0,0,0,0,0,0,0
91,515,508,820.0,1,0,0,0,0,0,0,0,0,0
92,515,508,820.0,1,0,0,0,0,0,0,0,0,0
93,515,507,820.0,1,0,0,0,0,0,0,0,0,0
94,516,507,820.0,1,0,0,0,0,0,0,0,0,0
95,516,509,820.0,1,0,0,0,0,0,0,0,0,0
96,515,510,820.0,1,0,0,0,0,0,0,0,0,0
97,516,509,820.0,1,0,0,0,0,0,0,0,0,0
98,515,509,820.0,1,0,0,0,0,0,0,0,0,0
99,515,509,819.0,1,0,0,0,0,0,0,0,0,0
100,514,510,820.0,1,0,0,0,0,0,0,0,0,0
101,513,510,819.0,1,0,0,0,0,0,0,0,0,0
102,514,509,820.0,1,0,0,0,0,0,0,0,0,0
103,514,509,819.0,1,0,0,0,0,0,0,0,0,0
104,514,510,820.0,1,0,0,0,0,0,0,0,0,0
105,513,511,819.0,1,0,0,0,0,0,0,0,0,0
106,511,513,819.0,1,0,0,0,0,0,0,0,0,0
107,510,514,819.0,1,0,0,0,0,0,0,0,0,0
108,510,515,819.0,1,0,0,0,0,0,0,0,0,0
109,509,515,819.0,1,0,0,0,0,0,0,0,0,0
110,507,516,819.0,1,0,0,0,0,0,0,0,0,0
111,506,517,819.0,1,0,0,0,0,0,0,0,0,0
112,505,517,819.0,1,0,0,0,0,0,0,0,0,0
113,504,516,819.0,1,0,0,0,0,0,0,0,0,0
114,504,517,819.0,1,0,0,0,0,0,0,0,0,0
115,504,516,819.0,1,0,0,0,0,0,0,0,0,0
116,503,516,819.0,1,0,0,0,0,0,0,0,0,0
117,501,517,819.0,1,0,0,0,0,0,0,0,0,0
118,499,516,819.0,1,0,0,0,0,0,0,0,0,0
119,499,516,819.0,1,0,0,0,0,0,0,0,0,0
120,501,515,819.0,1,0,0,0,0,0,0,0,0,0
121,500,516,819.0,1,0,0,0,0,0,0,0,0,0
122,500,517,819.0,1,0,0,0,0,0,0,0,0,0
123,500,516,819.0,1,0,0,0,0,0,0,0,0,0
124,501,516,819.0,1,0,0,0,0,0,0,0,0,0
125,502,516,819.0,1,0,0,0,0,0,0,0,0,0
126,501,515,819.0,1,0,0,0,0,0,0,0,0,0
127,502,513,819.0,1,0,0,0,0,0,0,0,0,0
128,503,514,819.0,1,0,0,0,0,0,0,0,0,0
129,503,514,819.0,1,0,0,0,0,0,0,0,0,0
130,503,513,819.0,1,0,0,0,0,0,0,0,0,0
131,503,512,819.0,1,0,0,0,0,0,0,0,0,0
132,505,512,819.0,1,0,0,0,0,0,0,0,0,0
133,504,512,819.0,1,0,0,0,0,0,0,0,0,0
134,504,513,819.0,1,0,0,0,0,0,0,0,0,0
135,505,514,819.0,1,0,0,0,0,0,0,0,0,0
136,508,513,819.0,1,0,0,0,0,0,0,0,0,0
137,510,512,819.0,1,0,0,0,0,0,0,0,0,0
138,511,510,819.0,1,0,0,0,0,0,0,0,0,0
139,509,511,819.0,1,0,0,0,0,0,0,0,0,0
140,509,510,819.0,1,0,0,0,0,0,0,0,0,0
141,510,510,819.0,1,0,0,0,0,0,0,0,0,0
142,511,510,819.0,1,0,0,0,0,0,0,0,0,0
143,512,510,819.0,1,0,0,0,0,0,0,0,0,0
144,511,510,819.0,1,0,0,0,0,0,0,0,0,0
145,509,509,819.0,1,0,0,0,0,0,0,0,0,0
146,509,510,819.0,1,0,0,0,0,0,0,0,0,0
147,510,511,819.0,1,0,0,0,0,0,0,0,0,0
148,511,512,819.0,1,0,0,0,0,0,0,0,0,0
149,512,512,819.0,1,0,0,0,0,0,0,0,0,0
150,512,511,819.0,1,0,0,0,0,0,0,0,0,0
151,511,511,819.0,1,0,0,0,0,0,0,0,0,0
152,510,511,819.0,1,0,0,0,0,0,0,0,0,0
153,510,510,819.0,1,0,0,0,0,0,0,0,0,0
154,512,509,819.0,1,0,0,0,0,0,0,0,0,0
155,512,509,819.0,1,0,0,0,0,0,0,0,0,0
156,511,510,819.0,1,0,0,0,0,0,0,0,0,0
157,511,511,819.0,1,0,0,0,0,0,0,0,0,0
158,511,510,819.0,1,0,0,0,0,0,0,0,0,0
159,511,510,819.0,1,0,0,0,0,0,0,0,0,0
160,511,509,819.0,1,0,0,0,0,0,0,0,0,0
161,511,509,819.0,1,0,0,0,0,0,0,0,0,0
162,511,509,819.0,1,0,0,0,0,0,0,0,0,0
163,510,510,818.0,1,0,0,0,0,0,0,0,0,0
164,509,510,819.0,1,0,0,0,0,0,0,0,0,0
165,508,510,818.0,1,0,0,0,0,0,0,0,0,0
166,508,510,819.0,1,0,0,0,0,0,0,0,0,0
167,508,510,819.0,1,0,0,0,0,0,0,0,0,0
168,508,510,819.0,1,0,0,0,0,0,0,0,0,0
169,509,511,819.0,1,0,0,0,0,0,0,0,0,0
170,508,512,819.0,1,0,0,0,0,0,0,0,0,0
171,507,512,819.0,1,0,0,0,0,0,0,0,0,0
172,508,511,819.0,1,0,0,0,0,0,0,0,0,0
173,507,510,818.0,1,0,0,0,0,0,0,0,0,0
174,508,510,819.0,1,0,0,0,0,0,0,0,0,0
175,507,511,818.0,1,0,0,0,0,0,0,0,0,0
176,507,510,818.0,1,0,0,0,0,0,0,0,0,0
177,506,510,818.0,1,0,0,0,0,0,0,0,0,0
178,506,510,818.0,1,0,0,0,0,0,0,0,0,0
179,507,511,819.0,1,0,0,0,0,0,0,0,0,0
180,508,510,818.0,1,0,0,0,0,0,0,0,0,0
181,508,509,818.0,1,0,0,0,0,0,0,0,0,0
182,508,509,818.0,1,0,0,0,0,0,0,0,0,0
183,508,509,818.0,1,0,0,0,0,0,0,0,0,0
184,507,509,819.0,1,0,0,0,0,0,0,0,0,0
185,508,508,818.0,1,0,0,0,0,0,0,0,0,0
186,510,508,819.0,1,0,0,0,0,0,0,0,0,0
187,511,508,818.0,1,0,0,0,0,0,0,0,0,0
188,510,508,819.0,1,0,0,0,0,0,0,0,0,0
189,511,507,818.0,1,0,0,0,0,0,0,0,0,0
190,516,506,819.0,1,0,0,0,0,0,0,0,0,0
191,519,506,818.0,1,0,0,0,0,0,0,0,0,0
192,520,507,818.0,1,0,0,0,0,0,0,0,0,0
193,518,507,818.0,1,0,0,0,0,0,0,0,0,0
194,516,507,818.0,1,0,0,0,0,0,0,0,0,0
195,515,508,818.0,1,0,0,0,0,0,0,0,0,0
196,515,508,818.0,1,0,0,0,0,0,0,0,0,0
197,516,508,818.0,1,0,0,0,0,0,0,0,0,0
198,514,509,818.0,1,0,0,0,0,0,0,0,0,0
199,511,509,818.0,1,0,0,0,0,0,0,0,0,0
200,511,509,818.0,1,0,0,0,0,0,0,0,0,0
201,510,510,818.0,1,0,0,0,0,0,0,0,0,0
202,511,510,818.0,1,0,0,0,0,0,0,0,0,0
203,511,511,818.0,1,0,0,0,0,0,0,0,0,0
204,511,511,818.0,1,0,0,0,0,0,0,0,0,0
205,508,511,818.0,1,0,0,0,0,0,0,0,0,0
206,507,512,818.0,1,0,0,0,0,0,0,0,0,0
207,509,511,818.0,1,0,0,0,0,0,0,0,0,0
208,509,511,818.0,1,0,0,0,0,0,0,0,0,0
209,509,511,818.0,1,0,0,0,0,0,0,0,0,0
210,509,511,818.0,1,0,0,0,0,0,0,0,0,0
211,510,510,818.0,1,0,0,0,0,0,0,0,0,0
212,512,511,818.0,1,0,0,0,0,0,0,0,0,0
213,513,510,818.0,1,0,0,0,0,0,0,0,0,0
214,512,511,818.0,1,0,0,0,0,0,0,0,0,0
215,513,510,818.0,1,0,0,0,0,0,0,0,0,0
216,514,509,818.0,1,0,0,0,0,0,0,0,0,0
217,519,510,818.0,1,0,0,0,0,0,0,0,0,0
218,530,507,818.0,1,0,0,0,0,0,0,0,0,0
219,547,504,818.0,1,0,0,0,0,0,0,0,0,0
220,571,497,818.0,1,0,0,0,0,0,0,0,0,0
221,597,488,818.0,1,0,0,0,0,0,0,0,0,0
222,621,481,818.0,1,0,0,0,0,0,0,0,0,0
223,629,480,818.0,1,0,0,0,0,0,0,0,0,0
224,616,485,818.0,1,0,0,0,0,0,0,0,0,0
225,591,494,818.0,1,0,0,0,0,0,0,0,0,0
226,566,506,818.0,1,0,0,0,0,0,0,0,0,0
227,537,514,818.0,1,0,0,0,0,0,0,0,0,0
228,512,520,818.0,1,0,0,0,0,0,0,0,0,0
229,500,523,818.0,1,0,0,0,0,0,0,0,0,0
230,490,524,818.0,1,0,0,0,0,0,0,0,0,0
231,481,522,818.0,1,0,0,0,0,0,0,0,0,0
232,476,520,818.0,1,0,0,0,0,0,0,0,0,0
233,476,518,818.0,1,0,0,0,0,0,0,0,0,0
234,481,516,818.0,1,0,0,0,0,0,0,0,0,0
235,485,515,818.0,1,0,0,0,0,0,0,0,0,0
236,489,513,818.0,1,0,0,0,0,0,0,0,0,0
237,491,512,818.0,1,0,0,0,0,0,0,0,0,0
238,492,511,818.0,1,0,0,0,0,0,0,0,0,0
239,492,512,818.0,1,0,0,0,0,0,0,0,0,0
240,493,511,818.0,1,0,0,0,0,0,0,0,0,0
241,493,510,818.0,1,0,0,0,0,0,0,0,0,0
242,494,510,818.0,1,0,0,0,0,0,0,0,0,0
243,494,510,818.0,1,0,0,0,0,0,0,0,0,0
244,495,509,818.0,1,0,0,0,0,0,0,0,0,0
245,496,510,818.0,1,0,0,0,0,0,0,0,0,0
246,496,510,818.0,1,0,0,0,0,0,0,0,0,0
247,496,510,818.0,1,0,0,0,0,0,0,0,0,0
248,497,510,818.0,1,0,0,0,0,0,0,0,0,0
249,500,509,818.0,1,0,0,0,0,0,0,0,0,0
250,501,509,818.0,1,0,0,0,0,0,0,0,0,0
251,500,509,818.0,1,0,0,0,0,0,0,0,0,0
252,501,508,818.0,1,0,0,0,0,0,0,0,0,0
253,505,509,818.0,1,0,0,0,0,0,0,0,0,0
254,507,509,818.0,1,0,0,0,0,0,0,0,0,0
255,508,509,818.0,1,0,0,0,0,0,0,0,0,0
256,506,510,818.0,1,0,0,0,0,0,0,0,0,0
257,507,509,818.0,1,0,0,0,0,0,0,0,0,0
258,506,510,818.0,1,0,0,0,0,0,0,0,0,0
259,504,508,818.0,1,0,0,0,0,0,0,0,0,0
260,506,507,818.0,1,0,0,0,0,0,0,0,0,0
261,508,507,818.0,1,0,0,0,0,0,0,0,0,0
262,507,507,818.0,1,0,0,0,0,0,0,0,0,0
263,508,508,818.0,1,0,0,0,0,0,0,0,0,0
264,510,508,818.0,1,0,0,0,0,0,0,0,0,0
265,511,508,818.0,1,0,0,0,0,0,0,0,0,0
266,510,508,818.0,1,0,0,0,0,0,0,0,0,0
267,511,508,818.0,1,0,0,0,0,0,0,0,0,0
268,513,508,818.0,1,0,0,0,0,0,0,0,0,0
269,512,508,818.0,1,0,0,0,0,0,0,0,0,0
270,511,508,818.0,1,0,0,0,0,0,0,0,0,0
271,511,507,818.0,1,0,0,0,0,0,0,0,0,0
272,510,507,818.0,1,0,0,0,0,0,0,0,0,0
273,510,507,818.0,1,0,0,0,0,0,0,0,0,0
274,514,507,818.0,1,0,0,0,0,0,0,0,0,0
275,516,507,818.0,1,0,0,0,0,0,0,0,0,0
276,515,508,818.0,1,0,0,0,0,0,0,0,0,0
277,514,507,818.0,1,0,0,0,0,0,0,0,0,0
278,514,507,818.0,1,0,0,0,0,0,0,0,0,0
279,513,507,818.0,1,0,0,0,0,0,0,0,0,0
280,515,507,818.0,1,0,0,0,0,0,0,0,0,0
281,515,506,818.0,1,0,0,0,0,0,0,0,0,0
282,515,507,818.0,1,0,0,0,0,0,0,0,0,0
283,515,507,818.0,1,0,0,0,0,0,0,0,0,0
284,513,508,818.0,1,0,0,0,0,0,0,0,0,0
285,514,508,818.0,1,0,0,0,0,0,0,0,0,0
286,515,508,818.0,1,0,0,0,0,0,0,0,0,0
287,515,508,817.0,1,0,0,0,0,0,0,0,0,0
288,516,507,818.0,1,0,0,0,0,0,0,0,0,0
289,514,507,818.0,1,0,0,0,0,0,0,0,0,0
290,513,506,818.0,1,0,0,0,0,0,0,0,0,0
291,512,507,818.0,1,0,0,0,0,0,0,0,0,0
292,511,506,818.0,1,0,0,0,0,0,0,0,0,0
293,512,505,818.0,1,0,0,0,0,0,0,0,0,0
294,515,506,818.0,1,0,0,0,0,0,0,0,0,0
295,515,507,818.0,1,0,0,0,0,0,0,0,0,0
296,512,508,817.0,1,0,0,0,0,0,0,0,0,0
297,513,508,818.0,1,0,0,0,0,0,0,0,0,0
298,515,508,818.0,1,0,0,0,0,0,0,0,0,0
299,515,508,817.0,1,0,0,0,0,0,0,0,0,0
300,513,508,818.0,1,0,0,0,0,0,0,0,0,0
301,511,510,817.0,1,0,0,0,0,0,0,0,0,0
302,512,509,818.0,1,0,0,0,0,0,0,0,0,0
303,512,510,817.0,1,0,0,0,0,0,0,0,0,0
304,510,510,818.0,1,0,0,0,0,0,0,0,0,0
305,509,511,818.0,1,0,0,0,0,0,0,0,0,0
306,511,511,818.0,1,0,0,0,0,0,0,0,0,0
307,510,512,818.0,1,0,0,0,0,0,0,0,0,0
308,508,513,818.0,1,0,0,0,0,0,0,0,0,0
309,506,513,818.0,1,0,0,0,0,0,0,0,0,0
310,505,515,818.0,1,0,0,0,0,0,0,0,0,0
311,504,515,817.0,1,0,0,0,0,0,0,0,0,0
312,502,514,818.0,1,0,0,0,0,0,0,0,0,0
313,501,513,817.0,1,0,0,0,0,0,0,0,0,0
314,502,515,818.0,1,0,0,0,0,0,0,0,0,0
315,503,516,817.0,1,0,0,0,0,0,0,0,0,0
316,505,514,818.0,1,0,0,0,0,0,0,0,0,0
317,503,514,817.0,1,0,0,0,0,0,0,0,0,0
318,502,513,817.0,1,0,0,0,0,0,0,0,0,0
319,501,514,817.0,1,0,0,0,0,0,0,0,0,0
320,501,515,818.0,1,0,0,0,0,0,0,0,0,0
321,504,515,818.0,1,0,0,0,0,0,0,0,0,0
322,503,517,817.0,1,0,0,0,0,0,0,0,0,0
323,501,517,817.0,1,0,0,0,0,0,0,0,0,0
324,501,516,817.0,1,0,0,0,0,0,0,0,0,0
325,500,514,817.0,1,0,0,0,0,0,0,0,0,0
326,499,515,817.0,1,0,0,0,0,0,0,0,0,0
327,501,515,817.0,1,0,0,0,0,0,0,0,0,0
328,500,513,817.0,1,0,0,0,0,0,0,0,0,0
329,500,511,817.0,1,0,0,0,0,0,0,0,0,0
330,504,511,817.0,1,0,0,0,0,0,0,0,0,0
331,504,512,817.0,1,0,0,0,0,0,0,0,0,0
332,504,512,817.0,1,0,0,0,0,0,0,0,0,0
333,507,513,817.0,1,0,0,0,0,0,0,0,0,0
334,508,513,817.0,1,0,0,0,0,0,0,0,0,0
335,509,510,817.0,1,0,0,0,0,0,0,0,0,0
336,509,512,817.0,1,0,0,0,0,0,0,0,0,0
337,506,512,817.0,1,0,0,0,0,0,0,0,0,0
338,506,512,817.0,1,0,0,0,0,0,0,0,0,0
339,508,513,817.0,1,0,0,0,0,0,0,0,0,0
340,509,514,817.0,1,0,0,0,0,0,0,0,0,0
341,508,512,817.0,1,0,0,0,0,0,0,0,0,0
342,508,512,817.0,1,0,0,0,0,0,0,0,0,0
343,510,512,817.0,1,0,0,0,0,0,0,0,0,0
344,510,513,817.0,1,0,0,0,0,0,0,0,0,0
345,511,512,817.0,1,0,0,0,0,0,0,0,0,0
346,511,512,817.0,1,0,0,0,0,0,0,0,0,0
347,511,510,817.0,1,0,0,0,0,0,0,0,0,0
348,510,511,817.0,1,0,0,0,0,0,0,0,0,0
349,510,511,817.0,1,0,0,0,0,0,0,0,0,0
350,511,511,817.0,1,0,0,0,0,0,0,0,0,0
351,511,511,817.0,1,0,0,0,0,0,0,0,0,0
352,510,511,817.0,1,0,0,0,0,0,0,0,0,0
353,512,510,817.0,1,0,0,0,0,0,0,0,0,0
354,511,510,817.0,1,0,0,0,0,0,0,0,0,0
355,510,510,817.0,1,0,0,0,0,0,0,0,0,0
356,511,510,817.0,1,0,0,0,0,0,0,0,0,0
357,510,510,817.0,1,0,0,0,0,0,0,0,0,0
358,507,510,817.0,1,0,0,0,0,0,0,0,0,0
359,507,510,817.0,1,0,0,0,0,0,0,0,0,0
360,510,511,817.0,1,0,0,0,0,0,0,0,0,0
361,511,511,817.0,1,0,0,0,0,0,0,0,0,0
362,510,510,817.0,1,0,0,0,0,0,0,0,0,0
363,509,510,817.0,1,0,0,0,0,0,0,0,0,0
364,509,509,817.0,1,0,0,0,0,0,0,0,0,0
365,508,510,817.0,1,0,0,0,0,0,0,0,0,0
366,510,510,817.0,1,0,0,0,0,0,0,0,0,0
367,509,510,817.0,1,0,0,0,0,0,0,0,0,0
368,508,510,817.0,1,0,0,0,0,0,0,0,0,0
369,510,509,817.0,1,0,0,0,0,0,0,0,0,0
370,511,511,817.0,1,0,0,0,0,0,0,0,0,0
371,511,510,817.0,1,0,0,0,0,0,0,0,0,0
372,510,510,817.0,1,0,0,0,0,0,0,0,0,0
373,509,510,817.0,1,0,0,0,0,0,0,0,0,0
374,508,510,817.0,1,0,0,0,0,0,0,0,0,0
375,508,510,817.0,1,0,0,0,0,0,0,0,0,0
376,510,509,817.0,1,0,0,0,0,0,0,0,0,0
377,511,508,817.0,1,0,0,0,0,0,0,0,0,0
378,511,510,817.0,1,0,0,0,0,0,0,0,0,0
379,512,509,817.0,1,0,0,0,0,0,0,0,0,0
380,511,510,817.0,1,0,0,0,0,0,0,0,0,0
381,512,510,817.0,1,0,0,0,0,0,0,0,0,0
382,515,510,817.0,1,0,0,0,0,0,0,0,0,0
383,514,512,816.0,1,0,0,0,0,0,0,0,0,0
384,514,511,817.0,1,0,0,0,0,0,0,0,0,0
385,516,510,816.0,1,0,0,0,0,0,0,0,0,0
386,520,508,817.0,1,0,0,0,0,0,0,0,0,0
387,522,507,817.0,1,0,0,0,0,0,0,0,0,0
388,517,507,816.0,1,0,0,0,0,0,0,0,0,0
389,516,508,816.0,1,0,0,0,0,0,0,0,0,0
390,515,508,816.0,1,0,0,0,0,0,0,0,0,0
391,514,509,816.0,1,0,0,0,0,0,0,0,0,0
392,516,509,817.0,1,0,0,0,0,0,0,0,0,0
393,519,509,817.0,1,0,0,0,0,0,0,0,0,0
394,513,510,816.0,1,0,0,0,0,0,0,0,0,0
395,507,512,817.0,1,0,0,0,0,0,0,0,0,0
396,505,513,816.0,1,0,0,0,0,0,0,0,0,0
397,503,513,816.0,1,0,0,0,0,0,0,0,0,0
398,501,513,816.0,1,0,0,0,0,0,0,0,0,0
399,502,512,816.0,1,0,0,0,0,0,0,0,0,0
400,503,513,816.0,1,0,0,0,0,0,0,0,0,0
401,504,513,816.0,1,0,0,0,0,0,0,0,0,0
402,504,512,816.0,1,0,0,0,0,0,0,0,0,0
403,505,512,816.0,1,0,0,0,0,0,0,0,0,0
404,504,513,816.0,1,0,0,0,0,0,0,0,0,0
405,503,513,816.0,1,0,0,0,0,0,0,0,0,0
406,503,512,816.0,1,0,0,0,0,0,0,0,0,0
407,504,511,816.0,1,0,0,0,0,0,0,0,0,0
408,503,511,816.0,1,0,0,0,0,0,0,0,0,0
409,505,511,816.0,1,0,0,0,0,0,0,0,0,0
410,508,510,816.0,1,0,0,0,0,0,0,0,0,0
411,514,509,816.0,1,0,0,0,0,0,0,0,0,0
412,525,509,816.0,1,0,0,0,0,0,0,0,0,0
413,539,506,816.0,1,0,0,0,0,0,0,0,0,0
414,559,500,816.0,1,0,0,0,0,0,0,0,0,0
415,582,494,816.0,1,0,0,0,0,0,0,0,0,0
416,608,488,816.0,1,0,0,0,0,0,0,0,0,0
417,621,485,816.0,1,0,0,0,0,0,0,0,0,0
418,610,489,816.0,1,0,0,0,0,0,0,0,0,0
419,586,496,816.0,1,0,0,0,0,0,0,0,0,0
420,559,505,816.0,1,0,0,0,0,0,0,0,0,0
421,529,513,816.0,1,0,0,0,0,0,0,0,0,0
422,506,517,816.0,1,0,0,0,0,0,0,0,0,0
423,497,519,816.0,1,0,0,0,0,0,0,0,0,0
424,490,521,816.0,1,0,0,0,0,0,0,0,0,0
425,483,520,816.0,1,0,0,0,0,0,0,0,0,0
426,476,518,816.0,1,0,0,0,0,0,0,0,0,0
427,472,517,816.0,1,0,0,0,0,0,0,0,0,0
428,474,515,816.0,1,0,0,0,0,0,0,0,0,0
429,481,514,816.0,1,0,0,0,0,0,0,0,0,0
430,485,513,816.0,1,0,0,0,0,0,0,0,0,0
431,486,513,816.0,1,0,0,0,0,0,0,0,0,0
432,486,513,816.0,1,0,0,0,0,0,0,0,0,0
433,487,512,816.0,1,0,0,0,0,0,0,0,0,0
434,489,511,816.0,1,0,0,0,0,0,0,0,0,0
435,490,511,816.0,1,0,0,0,0,0,0,0,0,0
436,490,512,816.0,1,0,0,0,0,0,0,0,0,0
437,491,511,816.0,1,0,0,0,0,0,0,0,0,0
438,493,511,816.0,1,0,0,0,0,0,0,0,0,0
439,494,511,816.0,1,0,0,0,0,0,0,0,0,0
440,493,511,816.0,1,0,0,0,0,0,0,0,0,0
441,494,511,816.0,1,0,0,0,0,0,0,0,0,0
442,493,512,816.0,1,0,0,0,0,0,0,0,0,0
443,495,511,816.0,1,0,0,0,0,0,0,0,0,0
444,497,511,816.0,1,0,0,0,0,0,0,0,0,0
445,496,511,816.0,1,0,0,0,0,0,0,0,0,0
446,497,511,816.0,1,0,0,0,0,0,0,0,0,0
447,498,511,816.0,1,0,0,0,0,0,0,0,0,0
448,500,511,816.0,1,0,0,0,0,0,0,0,0,0
449,500,512,816.0,1,0,0,0,0,0,0,0,0,0
450,502,511,816.0,1,0,0,0,0,0,0,0,0,0
451,502,511,816.0,1,0,0,0,0,0,0,0,0,0
452,503,510,816.0,1,0,0,0,0,0,0,0,0,0
453,503,510,816.0,1,0,0,0,0,0,0,0,0,0
454,503,510,816.0,1,0,0,0,0,0,0,0,0,0
455,503,510,816.0,1,0,0,0,0,0,0,0,0,0
456,504,510,816.0,1,0,0,0,0,0,0,0,0,0
457,505,510,816.0,1,0,0,0,0,0,0,0,0,0
458,507,510,816.0,1,0,0,0,0,0,0,0,0,0
459,509,510,816.0,1,0,0,0,0,0,0,0,0,0
460,508,511,816.0,1,0,0,0,0,0,0,0,0,0
461,508,510,816.0,1,0,0,0,0,0,0,0,0,0
462,508,510,816.0,1,0,0,0,0,0,0,0,0,0
463,508,509,816.0,1,0,0,0,0,0,0,0,0,0
464,509,509,816.0,1,0,0,0,0,0,0,0,0,0
465,510,509,816.0,1,0,0,0,0,0,0,0,0,0
466,511,508,816.0,1,0,0,0,0,0,0,0,0,0
467,511,508,816.0,1,0,0,0,0,0,0,0,0,0
468,511,508,816.0,1,0,0,0,0,0,0,0,0,0
469,512,507,816.0,1,0,0,0,0,0,0,0,0,0
470,512,508,816.0,1,0,0,0,0,0,0,0,0,0
471,513,508,816.0,1,0,0,0,0,0,0,0,0,0
472,513,508,816.0,1,0,0,0,0,0,0,0,0,0
473,514,507,816.0,1,0,0,0,0,0,0,0,0,0
474,514,508,816.0,1,0,0,0,0,0,0,0,0,0
475,514,508,816.0,1,0,0,0,0,0,0,0,0,0
476,515,509,816.0,1,0,0,0,0,0,0,0,0,0
477,515,507,816.0,1,0,0,0,0,0,0,0,0,0
478,515,507,816.0,1,0,0,0,0,0,0,0,0,0
479,514,507,816.0,1,0,0,0,0,0,0,0,0,0
480,513,507,816.0,1,0,0,0,0,0,0,0,0,0
481,514,507,816.0,1,0,0,0,0,0,0,0,0,0
482,514,506,816.0,1,0,0,0,0,0,0,0,0,0
483,514,505,816.0,1,0,0,0,0,0,0,0,0,0
484,514,506,816.0,1,0,0,0,0,0,0,0,0,0
485,514,507,816.0,1,0,0,0,0,0,0,0,0,0
486,513,506,816.0,1,0,0,0,0,0,0,0,0,0
487,513,507,816.0,1,0,0,0,0,0,0,0,0,0
488,512,507,816.0,1,0,0,0,0,0,0,0,0,0
489,512,507,816.0,1,0,0,0,0,0,0,0,0,0
490,511,507,816.0,1,0,0,0,0,0,0,0,0,0
491,513,508,816.0,1,0,0,0,0,0,0,0,0,0
492,513,508,816.0,1,0,0,0,0,0,0,0,0,0
493,513,507,816.0,1,0,0,0,0,0,0,0,0,0
494,511,508,816.0,1,0,0,0,0,0,0,0,0,0
495,511,508,816.0,1,0,0,0,0,0,0,0,0,0
496,511,510,816.0,1,0,0,0,0,0,0,0,0,0
497,512,510,816.0,1,0,0,0,0,0,0,0,0,0
498,511,510,816.0,1,0,0,0,0,0,0,0,0,0
499,510,511,816.0,1,0,0,0,0,0,0,0,0,0
500,508,511,816.0,1,0,0,0,0,0,0,0,0,0
501,506,512,816.0,1,0,0,0,0,0,0,0,0,0
502,507,513,816.0,1,0,0,0,0,0,0,0,0,0
503,507,514,816.0,1,0,0,0,0,0,0,0,0,0
504,506,514,816.0,1,0,0,0,0,0,0,0,0,0
505,505,513,816.0,1,0,0,0,0,0,0,0,0,0
506,505,514,816.0,1,0,0,0,0,0,0,0,0,0
507,505,515,816.0,1,0,0,0,0,0,0,0,0,0
508,504,515,816.0,1,0,0,0,0,0,0,0,0,0
509,502,514,816.0,1,0,0,0,0,0,0,0,0,0
510,502,514,816.0,1,0,0,0,0,0,0,0,0,0
511,503,515,816.0,1,0,0,0,0,0,0,0,0,0
512,502,515,816.0,1,0,0,0,0,0,0,0,0,0
513,501,515,816.0,1,0,0,0,0,0,0,0,0,0
514,500,515,816.0,1,0,0,0,0,0,0,0,0,0
515,499,515,816.0,1,0,0,0,0,0,0,0,0,0
516,500,516,816.0,1,0,0,0,0,0,0,0,0,0
517,500,516,816.0,1,0,0,0,0,0,0,0,0,0
518,502,516,816.0,1,0,0,0,0,0,0,0,0,0
519,502,515,815.0,1,0,0,0,0,0,0,0,0,0
520,502,514,816.0,1,0,0,0,0,0,0,0,0,0
521,502,515,815.0,1,0,0,0,0,0,0,0,0,0
522,502,515,816.0,1,0,0,0,0,0,0,0,0,0
523,502,514,815.0,1,0,0,0,0,0,0,0,0,0
524,502,514,816.0,1,0,0,0,0,0,0,0,0,0
525,504,513,815.0,1,0,0,0,0,0,0,0,0,0
526,505,513,816.0,1,0,0,0,0,0,0,0,0,0
527,505,512,816.0,1,0,0,0,0,0,0,0,0,0
528,504,512,815.0,1,0,0,0,0,0,0,0,0,0
529,505,512,815.0,1,0,0,0,0,0,0,0,0,0
530,505,512,815.0,1,0,0,0,0,0,0,0,0,0
531,506,512,815.0,1,0,0,0,0,0,0,0,0,0
532,506,512,815.0,1,0,0,0,0,0,0,0,0,0
533,506,512,815.0,1,0,0,0,0,0,0,0,0,0
534,506,512,815.0,1,0,0,0,0,0,0,0,0,0
535,507,511,815.0,1,0,0,0,0,0,0,0,0,0
536,508,511,815.0,1,0,0,0,0,0,0,0,0,0
537,508,510,815.0,1,0,0,0,0,0,0,0,0,0
538,507,511,815.0,1,0,0,0,0,0,0,0,0,0
539,508,512,815.0,1,0,0,0,0,0,0,0,0,0
540,507,512,815.0,1,0,0,0,0,0,0,0,0,0
541,508,511,815.0,1,0,0,0,0,0,0,0,0,0
542,509,510,815.0,1,0,0,0,0,0,0,0,0,0
543,510,510,815.0,1,0,0,0,0,0,0,0,0,0
544,510,510,815.0,1,0,0,0,0,0,0,0,0,0
545,510,510,815.0,1,0,0,0,0,0,0,0,0,0
546,510,510,815.0,1,0,0,0,0,0,0,0,0,0
547,510,510,815.0,1,0,0,0,0,0,0,0,0,0
548,510,510,815.0,1,0,0,0,0,0,0,0,0,0
549,509,509,815.0,1,0,0,0,0,0,0,0,0,0
550,509,509,815.0,1,0,0,0,0,0,0,0,0,0
551,509,510,815.0,1,0,0,0,0,0,0,0,0,0
552,509,510,815.0,1,0,0,0,0,0,0,0,0,0
553,508,509,815.0,1,0,0,0,0,0,0,0,0,0
554,508,510,815.0,1,0,0,0,0,0,0,0,0,0
555,508,510,815.0,1,0,0,0,0,0,0,0,0,0
556,508,511,815.0,1,0,0,0,0,0,0,0,0,0
557,508,510,815.0,1,0,0,0,0,0,0,0,0,0
558,507,510,815.0,1,0,0,0,0,0,0,0,0,0
559,508,509,815.0,1,0,0,0,0,0,0,0,0,0
560,508,509,815.0,1,0,0,0,0,0,0,0,0,0
561,508,510,815.0,1,0,0,0,0,0,0,0,0,0
562,508,510,815.0,1,0,0,0,0,0,0,0,0,0
563,508,511,815.0,1,0,0,0,0,0,0,0,0,0
564,508,511,815.0,1,0,0,0,0,0,0,0,0,0
565,508,511,815.0,1,0,0,0,0,0,0,0,0,0
566,508,511,815.0,1,0,0,0,0,0,0,0,0,0
567,508,511,815.0,1,0,0,0,0,0,0,0,0,0
568,507,511,815.0,1,0,0,0,0,0,0,0,0,0
569,507,510,815.0,1,0,0,0,0,0,0,0,0,0
570,507,510,815.0,1,0,0,0,0,0,0,0,0,0
571,507,511,815.0,1,0,0,0,0,0,0,0,0,0
572,507,510,815.0,1,0,0,0,0,0,0,0,0,0
573,508,511,815.0,1,0,0,0,0,0,0,0,0,0
574,508,511,815.0,1,0,0,0,0,0,0,0,0,0
575,509,510,815.0,1,0,0,0,0,0,0,0,0,0
576,509,509,815.0,1,0,0,0,0,0,0,0,0,0
577,511,509,815.0,1,0,0,0,0,0,0,0,0,0
578,512,509,815.0,1,0,0,0,0,0,0,0,0,0
579,512,510,815.0,1,0,0,0,0,0,0,0,0,0
580,513,510,815.0,1,0,0,0,0,0,0,0,0,0
581,513,510,815.0,1,0,0,0,0,0,0,0,0,0
582,514,511,815.0,1,0,0,0,0,0,0,0,0,0
583,514,510,815.0,1,0,0,0,0,0,0,0,0,0
584,516,509,815.0,1,0,0,0,0,0,0,0,0,0
585,519,509,815.0,1,0,0,0,0,0,0,0,0,0
586,520,509,815.0,1,0,0,0,0,0,0,0,0,0
587,519,509,815.0,1,0,0,0,0,0,0,0,0,0
588,518,508,815.0,1,0,0,0,0,0,0,0,0,0
589,517,508,815.0,1,0,0,0,0,0,0,0,0,0
590,515,508,815.0,1,0,0,0,0,0,0,0,0,0
591,515,507,815.0,1,0,0,0,0,0,0,0,0,0
592,515,508,815.0,1,0,0,0,0,0,0,0,0,0
593,513,509,815.0,1,0,0,0,0,0,0,0,0,0
594,510,509,815.0,1,0,0,0,0,0,0,0,0,0
595,508,511,815.0,1,0,0,0,0,0,0,0,0,0
596,506,512,815.0,1,0,0,0,0,0,0,0,0,0
597,504,511,815.0,1,0,0,0,0,0,0,0,0,0
598,504,512,815.0,1,0,0,0,0,0,0,0,0,0
599,504,512,815.0,1,0,0,0,0,0,0,0,0,0
600,504,511,815.0,1,0,0,0,0,0,0,0,0,0
601,504,511,815.0,1,0,0,0,0,0,0,0,0,0
602,504,512,815.0,1,0,0,0,0,0,0,0,0,0
603,505,512,815.0,1,0,0,0,0,0,0,0,0,0
604,504,512,815.0,1,0,0,0,0,0,0,0,0,0
605,505,512,815.0,1,0,0,0,0,0,0,0,0,0
606,505,511,815.0,1,0,0,0,0,0,0,0,0,0
607,505,512,815.0,1,0,0,0,0,0,0,0,0,0
608,504,512,815.0,1,0,0,0,0,0,0,0,0,0
609,506,511,815.0,1,0,0,0,0,0,0,0,0,0
610,511,511,815.0,1,0,0,0,0,0,0,0,0,0
611,518,509,815.0,1,0,0,0,0,0,0,0,0,0
612,531,507,815.0,1,0,0,0,0,0,0,0,0,0
613,548,503,815.0,1,0,0,0,0,0,0,0,0,0
614,568,497,815.0,1,0,0,0,0,0,0,0,0,0
615,595,489,815.0,1,0,0,0,0,0,0,0,0,0
616,624,483,815.0,1,0,0,0,0,0,0,0,0,0
617,636,481,815.0,1,0,0,0,0,0,0,0,0,0
618,624,484,815.0,1,0,0,0,0,0,0,0,0,0
619,594,492,815.0,1,0,0,0,0,0,0,0,0,0
620,558,503,815.0,1,0,0,0,0,0,0,0,0,0
621,524,512,815.0,1,0,0,0,0,0,0,0,0,0
622,503,517,815.0,1,0,0,0,0,0,0,0,0,0
623,491,520,815.0,1,0,0,0,0,0,0,0,0,0
624,482,521,815.0,1,0,0,0,0,0,0,0,0,0
625,475,521,815.0,1,0,0,0,0,0,0,0,0,0
626,473,519,815.0,1,0,0,0,0,0,0,0,0,0
627,477,517,815.0,1,0,0,0,0,0,0,0,0,0
628,481,516,815.0,1,0,0,0,0,0,0,0,0,0
629,483,515,815.0,1,0,0,0,0,0,0,0,0,0
630,484,515,815.0,1,0,0,0,0,0,0,0,0,0
631,485,515,815.0,1,0,0,0,0,0,0,0,0,0
632,486,514,815.0,1,0,0,0,0,0,0,0,0,0
633,486,513,815.0,1,0,0,0,0,0,0,0,0,0
634,486,514,815.0,1,0,0,0,0,0,0,0,0,0
635,487,514,815.0,1,0,0,0,0,0,0,0,0,0
636,488,513,815.0,1,0,0,0,0,0,0,0,0,0
637,489,513,815.0,1,0,0,0,0,0,0,0,0,0
638,491,513,815.0,1,0,0,0,0,0,0,0,0,0
639,492,513,815.0,1,0,0,0,0,0,0,0,0,0
640,493,513,815.0,1,0,0,0,0,0,0,0,0,0
641,493,512,815.0,1,0,0,0,0,0,0,0,0,0
642,494,512,815.0,1,0,0,0,0,0,0,0,0,0
643,496,512,815.0,1,0,0,0,0,0,0,0,0,0
644,497,511,815.0,1,0,0,0,0,0,0,0,0,0
645,498,512,815.0,1,0,0,0,0,0,0,0,0,0
646,498,511,815.0,1,0,0,0,0,0,0,0,0,0
647,499,511,815.0,1,0,0,0,0,0,0,0,0,0
648,499,511,815.0,1,0,0,0,0,0,0,0,0,0
649,500,511,815.0,1,0,0,0,0,0,0,0,0,0
650,501,511,815.0,1,0,0,0,0,0,0,0,0,0
651,502,511,815.0,1,0,0,0,0,0,0,0,0,0
652,503,511,815.0,1,0,0,0,0,0,0,0,0,0
653,504,511,815.0,1,0,0,0,0,0,0,0,0,0
654,504,510,815.0,1,0,0,0,0,0,0,0,0,0
655,505,510,815.0,1,0,0,0,0,0,0,0,0,0
656,505,510,815.0,1,0,0,0,0,0,0,0,0,0
657,505,509,815.0,1,0,0,0,0,0,0,0,0,0
658,506,509,815.0,1,0,0,0,0,0,0,0,0,0
659,507,509,815.0,1,0,0,0,0,0,0,0,0,0
660,508,509,815.0,1,0,0,0,0,0,0,0,0,0
661,509,510,815.0,1,0,0,0,0,0,0,0,0,0
662,510,509,815.0,1,0,0,0,0,0,0,0,0,0
663,511,508,815.0,1,0,0,0,0,0,0,0,0,0
664,511,509,815.0,1,0,0,0,0,0,0,0,0,0
665,512,508,815.0,1,0,0,0,0,0,0,0,0,0
666,512,508,815.0,1,0,0,0,0,0,0,0,0,0
667,512,508,815.0,1,0,0,0,0,0,0,0,0,0
668,513,508,815.0,1,0,0,0,0,0,0,0,0,0
669,514,508,815.0,1,0,0,0,0,0,0,0,0,0
670,515,508,815.0,1,0,0,0,0,0,0,0,0,0
671,515,508,815.0,1,0,0,0,0,0,0,0,0,0
672,515,508,815.0,1,0,0,0,0,0,0,0,0,0
673,515,508,815.0,1,0,0,0,0,0,0,0,0,0
674,515,508,815.0,1,0,0,0,0,0,0,0,0,0
675,515,508,815.0,1,0,0,0,0,0,0,0,0,0
676,516,508,815.0,1,0,0,0,0,0,0,0,0,0
677,516,508,815.0,1,0,0,0,0,0,0,0,0,0
678,515,507,815.0,1,0,0,0,0,0,0,0,0,0
679,516,506,815.0,1,0,0,0,0,0,0,0,0,0
680,516,506,815.0,1,0,0,0,0,0,0,0,0,0
681,517,506,815.0,1,0,0,0,0,0,0,0,0,0
682,517,506,815.0,1,0,0,0,0,0,0,0,0,0
683,516,506,814.0,1,0,0,0,0,0,0,0,0,0
684,516,506,815.0,1,0,0,0,0,0,0,0,0,0
685,517,506,815.0,1,0,0,0,0,0,0,0,0,0
686,517,506,815.0,1,0,0,0,0,0,0,0,0,0
687,517,507,815.0,1,0,0,0,0,0,0,0,0,0
688,516,507,814.0,1,0,0,0,0,0,0,0,0,0
689,515,507,814.0,1,0,0,0,0,0,0,0,0,0
690,515,507,815.0,1,0,0,0,0,0,0,0,0,0
691,516,507,815.0,1,0,0,0,0,0,0,0,0,0
692,516,507,814.0,1,0,0,0,0,0,0,0,0,0
693,516,507,814.0,1,0,0,0,0,0,0,0,0,0
694,516,507,814.0,1,0,0,0,0,0,0,0,0,0
695,516,507,815.0,1,0,0,0,0,0,0,0,0,0
696,516,509,814.0,1,0,0,0,0,0,0,0,0,0
697,515,509,815.0,1,0,0,0,0,0,0,0,0,0
698,513,509,815.0,1,0,0,0,0,0,0,0,0,0
699,512,510,815.0,1,0,0,0,0,0,0,0,0,0
700,511,512,815.0,1,0,0,0,0,0,0,0,0,0
701,509,514,814.0,1,0,0,0,0,0,0,0,0,0
702,508,514,814.0,1,0,0,0,0,0,0,0,0,0
703,507,514,815.0,1,0,0,0,0,0,0,0,0,0
704,506,514,815.0,1,0,0,0,0,0,0,0,0,0
705,505,514,814.0,1,0,0,0,0,0,0,0,0,0
706,504,515,814.0,1,0,0,0,0,0,0,0,0,0
707,502,515,815.0,1,0,0,0,0,0,0,0,0,0
708,501,515,815.0,1,0,0,0,0,0,0,0,0,0
709,501,516,814.0,1,0,0,0,0,0,0,0,0,0
710,500,516,815.0,1,0,0,0,0,0,0,0,0,0
711,500,516,815.0,1,0,0,0,0,0,0,0,0,0
712,500,516,815.0,1,0,0,0,0,0,0,0,0,0
713,501,515,815.0,1,0,0,0,0,0,0,0,0,0
714,501,515,814.0,1,0,0,0,0,0,0,0,0,0
715,501,515,815.0,1,0,0,0,0,0,0,0,0,0
716,500,515,815.0,1,0,0,0,0,0,0,0,0,0
717,501,515,815.0,1,0,0,0,0,0,0,0,0,0
718,502,515,815.0,1,0,0,0,0,0,0,0,0,0
719,503,514,815.0,1,0,0,0,0,0,0,0,0,0
720,504,514,814.0,1,0,0,0,0,0,0,0,0,0
721,504,514,815.0,1,0,0,0,0,0,0,0,0,0
722,504,514,815.0,1,0,0,0,0,0,0,0,0,0
723,505,514,814.0,1,0,0,0,0,0,0,0,0,0
724,505,514,815.0,1,0,0,0,0,0,0,0,0,0
725,505,514,815.0,1,0,0,0,0,0,0,0,0,0
726,505,513,815.0,1,0,0,0,0,0,0,0,0,0
727,505,513,815.0,1,0,0,0,0,0,0,0,0,0
728,506,513,814.0,1,0,0,0,0,0,0,0,0,0
729,506,513,814.0,1,0,0,0,0,0,0,0,0,0
730,507,513,815.0,1,0,0,0,0,0,0,0,0,0
731,508,513,815.0,1,0,0,0,0,0,0,0,0,0
732,509,513,814.0,1,0,0,0,0,0,0,0,0,0
733,510,512,814.0,1,0,0,0,0,0,0,0,0,0
734,509,511,814.0,1,0,0,0,0,0,0,0,0,0
735,509,511,814.0,1,0,0,0,0,0,0,0,0,0
736,509,511,814.0,1,0,0,0,0,0,0,0,0,0
737,510,511,815.0,1,0,0,0,0,0,0,0,0,0
738,511,510,814.0,1,0,0,0,0,0,0,0,0,0
739,511,510,814.0,1,0,0,0,0,0,0,0,0,0
740,511,511,814.0,1,0,0,0,0,0,0,0,0,0
741,511,512,814.0,1,0,0,0,0,0,0,0,0,0
742,511,511,814.0,1,0,0,0,0,0,0,0,0,0
743,511,511,814.0,1,0,0,0,0,0,0,0,0,0
744,511,511,814.0,1,0,0,0,0,0,0,0,0,0
745,511,511,815.0,1,0,0,0,0,0,0,0,0,0
746,511,511,814.0,1,0,0,0,0,0,0,0,0,0
747,511,511,814.0,1,0,0,0,0,0,0,0,0,0
748,511,510,814.0,1,0,0,0,0,0,0,0,0,0
749,511,510,814.0,1,0,0,0,0,0,0,0,0,0
750,511,510,814.0,1,0,0,0,0,0,0,0,0,0
751,511,510,814.0,1,0,0,0,0,0,0,0,0,0
752,511,510,814.0,1,0,0,0,0,0,0,0,0,0
753,511,510,814.0,1,0,0,0,0,0,0,0,0,0
754,511,510,814.0,1,0,0,0,0,0,0,0,0,0
755,510,510,814.0,1,0,0,0,0,0,0,0,0,0
756,510,510,814.0,1,0,0,0,0,0,0,0,0,0
757,510,511,814.0,1,0,0,0,0,0,0,0,0,0
758,509,511,814.0,1,0,0,0,0,0,0,0,0,0
759,509,510,815.0,1,0,0,0,0,0,0,0,0,0
760,510,510,815.0,1,0,0,0,0,0,0,0,0,0
761,510,510,814.0,1,0,0,0,0,0,0,0,0,0
762,509,511,814.0,1,0,0,0,0,0,0,0,0,0
763,509,511,814.0,1,0,0,0,0,0,0,0,0,0
764,509,511,814.0,1,0,0,0,0,0,0,0,0,0
765,508,511,814.0,1,0,0,0,0,0,0,0,0,0
766,508,511,814.0,1,0,0,0,0,0,0,0,0,0
767,508,512,814.0,1,0,0,0,0,0,0,0,0,0
768,507,512,814.0,1,0,0,0,0,0,0,0,0,0
769,508,512,815.0,1,0,0,0,0,0,0,0,0,0
770,507,512,815.0,1,0,0,0,0,0,0,0,0,0
771,507,512,814.0,1,0,0,0,0,0,0,0,0,0
772,507,512,814.0,1,0,0,0,0,0,0,0,0,0
773,507,511,814.0,1,0,0,0,0,0,0,0,0,0
774,507,512,814.0,1,0,0,0,0,0,0,0,0,0
775,507,511,814.0,1,0,0,0,0,0,0,0,0,0
776,508,511,814.0,1,0,0,0,0,0,0,0,0,0
777,508,513,815.0,1,0,0,0,0,0,0,0,0,0
778,508,513,814.0,1,0,0,0,0,0,0,0,0,0
779,508,513,814.0,1,0,0,0,0,0,0,0,0,0
780,508,512,814.0,1,0,0,0,0,0,0,0,0,0
781,509,512,814.0,1,0,0,0,0,0,0,0,0,0
782,510,511,814.0,1,0,0,0,0,0,0,0,0,0
783,511,510,814.0,1,0,0,0,0,0,0,0,0,0
784,512,510,814.0,1,0,0,0,0,0,0,0,0,0
785,513,510,814.0,1,0,0,0,0,0,0,0,0,0
786,514,510,814.0,1,0,0,0,0,0,0,0,0,0
787,514,510,814.0,1,0,0,0,0,0,0,0,0,0
788,513,510,814.0,1,0,0,0,0,0,0,0,0,0
789,513,510,814.0,1,0,0,0,0,0,0,0,0,0
790,514,510,814.0,1,0,0,0,0,0,0,0,0,0
791,513,509,814.0,1,0,0,0,0,0,0,0,0,0
792,514,510,814.0,1,0,0,0,0,0,0,0,0,0
793,515,509,814.0,1,0,0,0,0,0,0,0,0,0
794,518,508,814.0,1,0,0,0,0,0,0,0,0,0
795,519,507,814.0,1,0,0,0,0,0,0,0,0,0
796,517,508,814.0,1,0,0,0,0,0,0,0,0,0
797,516,509,814.0,1,0,0,0,0,0,0,0,0,0
798,515,509,814.0,1,0,0,0,0,0,0,0,0,0
799,514,508,814.0,1,0,0,0,0,0,0,0,0,0
800,514,508,814.0,1,0,0,0,0,0,0,0,0,0
801,512,509,814.0,1,0,0,0,0,0,0,0,0,0
802,510,510,814.0,1,0,0,0,0,0,0,0,0,0
803,507,510,814.0,1,0,0,0,0,0,0,0,0,0
804,506,511,814.0,1,0,0,0,0,0,0,0,0,0
805,505,512,814.0,1,0,0,0,0,0,0,0,0,0
806,504,512,814.0,1,0,0,0,0,0,0,0,0,0
807,504,512,814.0,1,0,0,0,0,0,0,0,0,0
808,504,512,814.0,1,0,0,0,0,0,0,0,0,0
809,504,511,814.0,1,0,0,0,0,0,0,0,0,0
810,504,511,814.0,1,0,0,0,0,0,0,0,0,0
811,504,512,814.0,1,0,0,0,0,0,0,0,0,0
812,504,512,814.0,1,0,0,0,0,0,0,0,0,0
813,505,512,814.0,1,0,0,0,0,0,0,0,0,0
814,504,511,814.0,1,0,0,0,0,0,0,0,0,0
815,505,511,814.0,1,0,0,0,0,0,0,0,0,0
816,505,512,814.0,1,0,0,0,0,0,0,0,0,0
817,506,512,814.0,1,0,0,0,0,0,0,0,0,0
818,509,511,814.0,1,0,0,0,0,0,0,0,0,0
819,515,510,814.0,1,0,0,0,0,0,0,0,0,0
820,524,508,814.0,1,0,0,0,0,0,0,0,0,0
821,539,506,814.0,1,0,0,0,0,0,0,0,0,0
822,559,501,814.0,1,0,0,0,0,0,0,0,0,0
823,586,493,814.0,1,0,0,0,0,0,0,0,0,0
824,618,486,814.0,1,0,0,0,0,0,0,0,0,0
825,641,480,814.0,1,0,0,0,0,0,0,0,0,0
826,641,480,815.0,1,0,0,0,0,0,0,0,0,0
827,620,486,815.0,1,0,0,0,0,0,0,0,0,0
828,585,495,814.0,1,0,0,0,0,0,0,0,0,0
829,547,505,815.0,1,0,0,0,0,0,0,0,0,0
830,516,513,815.0,1,0,0,0,0,0,0,0,0,0
831,494,518,814.0,1,0,0,0,0,0,0,0,0,0
832,481,520,814.0,1,0,0,0,0,0,0,0,0,0
833,472,520,814.0,1,0,0,0,0,0,0,0,0,0
834,473,519,814.0,1,0,0,0,0,0,0,0,0,0
835,477,518,815.0,1,0,0,0,0,0,0,0,0,0
836,480,517,814.0,1,0,0,0,0,0,0,0,0,0
837,480,516,815.0,1,0,0,0,0,0,0,0,0,0
838,480,515,814.0,1,0,0,0,0,0,0,0,0,0
839,480,515,814.0,1,0,0,0,0,0,0,0,0,0
840,480,515,814.0,1,0,0,0,0,0,0,0,0,0
841,481,514,814.0,1,0,0,0,0,0,0,0,0,0
842,483,514,814.0,1,0,0,0,0,0,0,0,0,0
843,484,514,814.0,1,0,0,0,0,0,0,0,0,0
844,485,514,814.0,1,0,0,0,0,0,0,0,0,0
845,486,514,814.0,1,0,0,0,0,0,0,0,0,0
846,487,513,814.0,1,0,0,0,0,0,0,0,0,0
847,489,513,814.0,1,0,0,0,0,0,0,0,0,0
848,489,513,814.0,1,0,0,0,0,0,0,0,0,0
849,490,512,814.0,1,0,0,0,0,0,0,0,0,0
850,491,513,814.0,1,0,0,0,0,0,0,0,0,0
851,493,513,814.0,1,0,0,0,0,0,0,0,0,0
852,494,512,814.0,1,0,0,0,0,0,0,0,0,0
853,495,512,814.0,1,0,0,0,0,0,0,0,0,0
854,495,512,814.0,1,0,0,0,0,0,0,0,0,0
855,495,511,814.0,1,0,0,0,0,0,0,0,0,0
856,496,511,814.0,1,0,0,0,0,0,0,0,0,0
857,496,511,814.0,1,0,0,0,0,0,0,0,0,0
858,496,511,814.0,1,0,0,0,0,0,0,0,0,0
859,497,511,814.0,1,0,0,0,0,0,0,0,0,0
860,498,511,815.0,1,0,0,0,0,0,0,0,0,0
861,499,511,815.0,1,0,0,0,0,0,0,0,0,0
862,500,511,814.0,1,0,0,0,0,0,0,0,0,0
863,500,510,815.0,1,0,0,0,0,0,0,0,0,0
864,501,510,814.0,1,0,0,0,0,0,0,0,0,0
865,503,510,814.0,1,0,0,0,0,0,0,0,0,0
866,504,509,814.0,1,0,0,0,0,0,0,0,0,0
867,505,509,814.0,1,0,0,0,0,0,0,0,0,0
868,506,510,814.0,1,0,0,0,0,0,0,0,0,0
869,506,509,814.0,1,0,0,0,0,0,0,0,0,0
870,507,509,814.0,1,0,0,0,0,0,0,0,0,0
871,507,508,814.0,1,0,0,0,0,0,0,0,0,0
872,508,509,814.0,1,0,0,0,0,0,0,0,0,0
873,509,508,814.0,1,0,0,0,0,0,0,0,0,0
874,509,508,815.0,1,0,0,0,0,0,0,0,0,0
875,509,509,815.0,1,0,0,0,0,0,0,0,0,0
876,510,509,814.0,1,0,0,0,0,0,0,0,0,0
877,510,509,814.0,1,0,0,0,0,0,0,0,0,0
878,511,509,814.0,1,0,0,0,0,0,0,0,0,0
879,511,509,814.0,1,0,0,0,0,0,0,0,0,0
880,512,509,814.0,1,0,0,0,0,0,0,0,0,0
881,512,508,814.0,1,0,0,0,0,0,0,0,0,0
882,513,507,814.0,1,0,0,0,0,0,0,0,0,0
883,513,508,814.0,1,0,0,0,0,0,0,0,0,0
884,513,508,814.0,1,0,0,0,0,0,0,0,0,0
885,513,508,814.0,1,0,0,0,0,0,0,0,0,0
886,514,507,815.0,1,0,0,0,0,0,0,0,0,0
887,514,508,815.0,1,0,0,0,0,0,0,0,0,0
888,514,507,814.0,1,0,0,0,0,0,0,0,0,0
889,514,507,814.0,1,0,0,0,0,0,0,0,0,0
890,514,507,814.0,1,0,0,0,0,0,0,0,0,0
891,514,506,814.0,1,0,0,0,0,0,0,0,0,0
892,514,506,815.0,1,0,0,0,0,0,0,0,0,0
893,514,507,815.0,1,0,0,0,0,0,0,0,0,0
894,514,507,815.0,1,0,0,0,0,0,0,0,0,0
895,514,507,815.0,1,0,0,0,0,0,0,0,0,0
896,514,507,814.0,1,0,0,0,0,0,0,0,0,0
897,514,507,815.0,1,0,0,0,0,0,0,0,0,0
898,514,508,814.0,1,0,0,0,0,0,0,0,0,0
899,515,508,814.0,1,0,0,0,0,0,0,0,0,0
900,514,508,815.0,1,0,0,0,0,0,0,0,0,0
901,513,508,815.0,1,0,0,0,0,0,0,0,0,0
902,513,507,814.0,1,0,0,0,0,0,0,0,0,0
903,512,508,815.0,1,0,0,0,0,0,0,0,0,0
904,512,509,814.0,1,0,0,0,0,0,0,0,0,0
905,512,510,814.0,1,0,0,0,0,0,0,0,0,0
906,510,510,814.0,1,0,0,0,0,0,0,0,0,0
907,509,511,814.0,1,0,0,0,0,0,0,0,0,0
908,508,511,815.0,1,0,0,0,0,0,0,0,0,0
909,507,511,815.0,1,0,0,0,0,0,0,0,0,0
910,506,512,815.0,1,0,0,0,0,0,0,0,0,0
911,505,513,814.0,1,0,0,0,0,0,0,0,0,0
912,504,513,814.0,1,0,0,0,0,0,0,0,0,0
913,503,514,815.0,1,0,0,0,0,0,0,0,0,0
914,502,514,814.0,1,0,0,0,0,0,0,0,0,0
915,500,514,814.0,1,0,0,0,0,0,0,0,0,0
916,499,515,814.0,1,0,0,0,0,0,0,0,0,0
917,498,515,815.0,1,0,0,0,0,0,0,0,0,0
918,497,515,815.0,1,0,0,0,0,0,0,0,0,0
919,497,515,814.0,1,0,0,0,0,0,0,0,0,0
920,497,515,814.0,1,0,0,0,0,0,0,0,0,0
921,497,516,815.0,1,0,0,0,0,0,0,0,0,0
922,496,516,814.0,1,0,0,0,0,0,0,0,0,0
923,496,516,814.0,1,0,0,0,0,0,0,0,0,0
924,497,516,815.0,1,0,0,0,0,0,0,0,0,0
925,497,516,814.0,1,0,0,0,0,0,0,0,0,0
926,497,516,814.0,1,0,0,0,0,0,0,0,0,0
927,497,515,815.0,1,0,0,0,0,0,0,0,0,0
928,497,515,815.0,1,0,0,0,0,0,0,0,0,0
929,497,514,815.0,1,0,0,0,0,0,0,0,0,0
930,497,514,815.0,1,0,0,0,0,0,0,0,0,0
931,498,515,814.0,1,0,0,0,0,0,0,0,0,0
932,498,514,814.0,1,0,0,0,0,0,0,0,0,0
933,499,514,814.0,1,0,0,0,0,0,0,0,0,0
934,500,514,814.0,1,0,0,0,0,0,0,0,0,0
935,500,514,814.0,1,0,0,0,0,0,0,0,0,0
936,500,513,814.0,1,0,0,0,0,0,0,0,0,0
937,501,513,815.0,1,0,0,0,0,0,0,0,0,0
938,501,513,814.0,1,0,0,0,0,0,0,0,0,0
939,502,512,814.0,1,0,0,0,0,0,0,0,0,0
940,502,512,815.0,1,0,0,0,0,0,0,0,0,0
941,502,512,815.0,1,0,0,0,0,0,0,0,0,0
942,503,512,814.0,1,0,0,0,0,0,0,0,0,0
943,503,512,815.0,1,0,0,0,0,0,0,0,0,0
944,503,512,814.0,1,0,0,0,0,0,0,0,0,0
945,504,511,814.0,1,0,0,0,0,0,0,0,0,0
946,505,511,814.0,1,0,0,0,0,0,0,0,0,0
947,505,511,814.0,1,0,0,0,0,0,0,0,0,0
948,505,511,814.0,1,0,0,0,0,0,0,0,0,0
949,506,511,814.0,1,0,0,0,0,0,0,0,0,0
950,506,511,814.0,1,0,0,0,0,0,0,0,0,0
951,506,511,814.0,1,0,0,0,0,0,0,0,0,0
952,506,511,814.0,1,0,0,0,0,0,0,0,0,0
953,506,511,814.0,1,0,0,0,0,0,0,0,0,0
954,507,511,815.0,1,0,0,0,0,0,0,0,0,0
955,507,511,814.0,1,0,0,0,0,0,0,0,0,0
956,507,512,814.0,1,0,0,0,0,0,0,0,0,0
957,506,511,814.0,1,0,0,0,0,0,0,0,0,0
958,506,511,814.0,1,0,0,0,0,0,0,0,0,0
959,506,511,814.0,1,0,0,0,0,0,0,0,0,0
960,506,511,814.0,1,0,0,0,0,0,0,0,0,0
961,506,510,814.0,1,0,0,0,0,0,0,0,0,0
962,507,510,814.0,1,0,0,0,0,0,0,0,0,0
963,506,511,815.0,1,0,0,0,0,0,0,0,0,0
964,506,512,814.0,1,0,0,0,0,0,0,0,0,0
965,506,511,814.0,1,0,0,0,0,0,0,0,0,0
966,505,511,814.0,1,0,0,0,0,0,0,0,0,0
967,505,511,814.0,1,0,0,0,0,0,0,0,0,0
968,504,511,815.0,1,0,0,0,0,0,0,0,0,0
969,504,510,814.0,1,0,0,0,0,0,0,0,0,0
970,504,510,815.0,1,0,0,0,0,0,0,0,0,0
971,504,510,814.0,1,0,0,0,0,0,0,0,0,0
972,504,511,814.0,1,0,0,0,0,0,0,0,0,0
973,504,511,815.0,1,0,0,0,0,0,0,0,0,0
974,504,511,814.0,1,0,0,0,0,0,0,0,0,0
975,504,511,815.0,1,0,0,0,0,0,0,0,0,0
976,504,511,814.0,1,0,0,0,0,0,0,0,0,0
977,504,511,815.0,1,0,0,0,0,0,0,0,0,0
978,504,511,814.0,1,0,0,0,0,0,0,0,0,0
979,504,511,814.0,1,0,0,0,0,0,0,0,0,0
980,504,510,815.0,1,0,0,0,0,0,0,0,0,0
981,504,510,814.0,1,0,0,0,0,0,0,0,0,0
982,504,510,814.0,1,0,0,0,0,0,0,0,0,0
983,504,510,814.0,1,0,0,0,0,0,0,0,0,0
984,504,510,814.0,1,0,0,0,0,0,0,0,0,0
985,504,510,814.0,1,0,0,0,0,0,0,0,0,0
986,504,510,815.0,1,0,0,0,0,0,0,0,0,0
987,505,510,815.0,1,0,0,0,0,0,0,0,0,0
988,505,511,814.0,1,0,0,0,0,0,0,0,0,0
989,505,511,814.0,1,0,0,0,0,0,0,0,0,0
990,505,511,815.0,1,0,0,0,0,0,0,0,0,0
991,505,510,814.0,1,0,0,0,0,0,0,0,0,0
992,505,510,814.0,1,0,0,0,0,0,0,0,0,0
993,505,511,814.0,1,0,0,0,0,0,0,0,0,0
994,505,511,815.0,1,0,0,0,0,0,0,0,0,0
995,505,511,815.0,1,0,0,0,0,0,0,0,0,0
996,505,511,815.0,1,0,0,0,0,0,0,0,0,0
997,505,510,814.0,1,0,0,0,0,0,0,0,0,0
998,506,510,814.0,1,0,0,0,0,0,0,0,0,0
999,506,510,814.0,1,0,0,0,0,0,0,0,0,0
1000,506,511,814.0,1,0,0,0,0,0,0,0,0,0
1001,506,511,814.0,1,0,0,0,0,0,0,0,0,0
1002,506,511,815.0,1,0,0,0,0,0,0,0,0,0
1003,506,510,815.0,1,0,0,0,0,0,0,0,0,0
1004,506,510,814.0,1,0,0,0,0,0,0,0,0,0
1005,506,510,814.0,1,0,0,0,0,0,0,0,0,0
1006,506,510,814.0,1,0,0,0,0,0,0,0,0,0
1007,506,510,814.0,1,0,0,0,0,0,0,0,0,0
1008,507,510,815.0,1,0,0,0,0,0,0,0,0,0
1009,507,510,815.0,1,0,0,0,0,0,0,0,0,0
1010,507,510,814.0,1,0,0,0,0,0,0,0,0,0
1011,509,510,814.0,1,0,0,0,0,0,0,0,0,0
1012,510,509,814.0,1,0,0,0,0,0,0,0,0,0
1013,512,508,814.0,1,0,0,0,0,0,0,0,0,0
1014,513,508,815.0,1,0,0,0,0,0,0,0,0,0
1015,513,509,815.0,1,0,0,0,0,0,0,0,0,0
1016,513,509,815.0,1,0,0,0,0,0,0,0,0,0
1017,514,510,815.0,1,0,0,0,0,0,0,0,0,0
1018,514,508,815.0,1,0,0,0,0,0,0,0,0,0
1019,517,507,815.0,1,0,0,0,0,0,0,0,0,0
1020,519,506,815.0,1,0,0,0,0,0,0,0,0,0
1021,520,506,815.0,1,0,0,0,0,0,0,0,0,0
1022,520,505,815.0,1,0,0,0,0,0,0,0,0,0
1023,520,506,815.0,1,0,0,0,0,0,0,0,0,0
1024,518,507,815.0,1,0,0,0,0,0,0,0,0,0
1025,516,507,815.0,1,0,0,0,0,0,0,0,0,0
1026,515,507,815.0,1,0,0,0,0,0,0,0,0,0
1027,514,507,815.0,1,0,0,0,0,0,0,0,0,0
1028,512,508,815.0,1,0,0,0,0,0,0,0,0,0
1029,509,509,815.0,1,0,0,0,0,0,0,0,0,0
1030,507,511,815.0,1,0,0,0,0,0,0,0,0,0
1031,506,511,815.0,1,0,0,0,0,0,0,0,0,0
1032,505,511,815.0,1,0,0,0,0,0,0,0,0,0
1033,504,511,815.0,1,0,0,0,0,0,0,0,0,0
1034,504,512,814.0,1,0,0,0,0,0,0,0,0,0
1035,504,511,815.0,1,0,0,0,0,0,0,0,0,0
1036,504,511,815.0,1,0,0,0,0,0,0,0,0,0
1037,504,511,814.0,1,0,0,0,0,0,0,0,0,0
1038,504,511,814.0,1,0,0,0,0,0,0,0,0,0
1039,504,511,815.0,1,0,0,0,0,0,0,0,0,0
1040,504,511,815.0,1,0,0,0,0,0,0,0,0,0
1041,504,511,814.0,1,0,0,0,0,0,0,0,0,0
1042,504,511,814.0,1,0,0,0,0,0,0,0,0,0
1043,504,511,815.0,1,0,0,0,0,0,0,0,0,0
1044,506,510,815.0,1,0,0,0,0,0,0,0,0,0
1045,511,509,815.0,1,0,0,0,0,0,0,0,0,0
1046,519,508,814.0,1,0,0,0,0,0,0,0,0,0
1047,531,506,814.0,1,0,0,0,0,0,0,0,0,0
1048,548,502,814.0,1,0,0,0,0,0,0,0,0,0
1049,569,496,814.0,1,0,0,0,0,0,0,0,0,0
1050,598,487,815.0,1,0,0,0,0,0,0,0,0,0
1051,627,479,815.0,1,0,0,0,0,0,0,0,0,0
1052,638,476,815.0,1,0,0,0,0,0,0,0,0,0
1053,627,479,815.0,1,0,0,0,0,0,0,0,0,0
1054,597,486,815.0,1,0,0,0,0,0,0,0,0,0
1055,560,498,815.0,1,0,0,0,0,0,0,0,0,0
1056,527,508,815.0,1,0,0,0,0,0,0,0,0,0
1057,502,514,815.0,1,0,0,0,0,0,0,0,0,0
1058,487,518,815.0,1,0,0,0,0,0,0,0,0,0
1059,476,521,815.0,1,0,0,0,0,0,0,0,0,0
1060,474,521,815.0,1,0,0,0,0,0,0,0,0,0
1061,477,519,815.0,1,0,0,0,0,0,0,0,0,0
1062,479,518,815.0,1,0,0,0,0,0,0,0,0,0
1063,481,516,814.0,1,0,0,0,0,0,0,0,0,0
1064,482,515,815.0,1,0,0,0,0,0,0,0,0,0
1065,482,515,815.0,1,0,0,0,0,0,0,0,0,0
1066,482,515,815.0,1,0,0,0,0,0,0,0,0,0
1067,482,515,815.0,1,0,0,0,0,0,0,0,0,0
1068,482,515,815.0,1,0,0,0,0,0,0,0,0,0
1069,482,515,815.0,1,0,0,0,0,0,0,0,0,0
1070,484,514,815.0,1,0,0,0,0,0,0,0,0,0
1071,485,514,814.0,1,0,0,0,0,0,0,0,0,0
1072,486,514,814.0,1,0,0,0,0,0,0,0,0,0
1073,487,514,814.0,1,0,0,0,0,0,0,0,0,0
1074,489,513,815.0,1,0,0,0,0,0,0,0,0,0
1075,490,513,815.0,1,0,0,0,0,0,0,0,0,0
1076,491,513,815.0,1,0,0,0,0,0,0,0,0,0
1077,492,512,815.0,1,0,0,0,0,0,0,0,0,0
1078,492,512,815.0,1,0,0,0,0,0,0,0,0,0
1079,493,512,815.0,1,0,0,0,0,0,0,0,0,0
1080,494,512,814.0,1,0,0,0,0,0,0,0,0,0
1081,495,512,815.0,1,0,0,0,0,0,0,0,0,0
1082,496,512,814.0,1,0,0,0,0,0,0,0,0,0
1083,496,512,814.0,1,0,0,0,0,0,0,0,0,0
1084,497,512,814.0,1,0,0,0,0,0,0,0,0,0
1085,497,511,815.0,1,0,0,0,0,0,0,0,0,0
1086,498,511,814.0,1,0,0,0,0,0,0,0,0,0
1087,499,510,815.0,1,0,0,0,0,0,0,0,0,0
1088,500,511,815.0,1,0,0,0,0,0,0,0,0,0
1089,501,511,815.0,1,0,0,0,0,0,0,0,0,0
1090,502,511,815.0,1,0,0,0,0,0,0,0,0,0
1091,503,511,814.0,1,0,0,0,0,0,0,0,0,0
1092,503,511,814.0,1,0,0,0,0,0,0,0,0,0
1093,504,510,815.0,1,0,0,0,0,0,0,0,0,0
1094,504,509,815.0,1,0,0,0,0,0,0,0,0,0
1095,505,509,814.0,1,0,0,0,0,0,0,0,0,0
1096,505,509,814.0,1,0,0,0,0,0,0,0,0,0
1097,506,509,814.0,1,0,0,0,0,0,0,0,0,0
1098,507,509,814.0,1,0,0,0,0,0,0,0,0,0
1099,508,508,814.0,1,0,0,0,0,0,0,0,0,0
1100,509,508,814.0,1,0,0,0,0,0,0,0,0,0
1101,510,508,814.0,1,0,0,0,0,0,0,0,0,0
1102,510,509,814.0,1,0,0,0,0,0,0,0,0,0
1103,511,509,815.0,1,0,0,0,0,0,0,0,0,0
1104,511,509,814.0,1,0,0,0,0,0,0,0,0,0
1105,511,508,814.0,1,0,0,0,0,0,0,0,0,0
1106,512,508,814.0,1,0,0,0,0,0,0,0,0,0
1107,513,508,814.0,1,0,0,0,0,0,0,0,0,0
1108,514,508,814.0,1,0,0,0,0,0,0,0,0,0
1109,514,508,814.0,1,0,0,0,0,0,0,0,0,0
1110,514,508,814.0,1,0,0,0,0,0,0,0,0,0
1111,515,507,815.0,1,0,0,0,0,0,0,0,0,0
1112,515,507,814.0,1,0,0,0,0,0,0,0,0,0
1113,515,507,815.0,1,0,0,0,0,0,0,0,0,0
1114,515,507,814.0,1,0,0,0,0,0,0,0,0,0
1115,515,506,815.0,1,0,0,0,0,0,0,0,0,0
1116,515,507,815.0,1,0,0,0,0,0,0,0,0,0
1117,516,506,814.0,1,0,0,0,0,0,0,0,0,0
1118,516,506,814.0,1,0,0,0,0,0,0,0,0,0
1119,516,506,815.0,1,0,0,0,0,0,0,0,0,0
1120,516,506,814.0,1,0,0,0,0,0,0,0,0,0
1121,516,506,815.0,1,0,0,0,0,0,0,0,0,0
1122,515,506,814.0,1,0,0,0,0,0,0,0,0,0
1123,515,506,815.0,1,0,0,0,0,0,0,0,0,0
1124,515,506,815.0,1,0,0,0,0,0,0,0,0,0
1125,515,507,814.0,1,0,0,0,0,0,0,0,0,0
1126,514,507,815.0,1,0,0,0,0,0,0,0,0,0
1127,514,507,814.0,1,0,0,0,0,0,0,0,0,0
1128,514,507,814.0,1,0,0,0,0,0,0,0,0,0
1129,515,507,814.0,1,0,0,0,0,0,0,0,0,0
1130,514,508,815.0,1,0,0,0,0,0,0,0,0,0
1131,513,508,815.0,1,0,0,0,0,0,0,0,0,0
1132,512,508,815.0,1,0,0,0,0,0,0,0,0,0
1133,511,509,815.0,1,0,0,0,0,0,0,0,0,0
1134,511,509,815.0,1,0,0,0,0,0,0,0,0,0
1135,510,510,814.0,1,0,0,0,0,0,0,0,0,0
1136,509,511,815.0,1,0,0,0,0,0,0,0,0,0
1137,507,512,815.0,1,0,0,0,0,0,0,0,0,0
1138,506,512,815.0,1,0,0,0,0,0,0,0,0,0
1139,505,513,815.0,1,0,0,0,0,0,0,0,0,0
1140,504,514,815.0,1,0,0,0,0,0,0,0,0,0
1141,503,515,815.0,1,0,0,0,0,0,0,0,0,0
1142,502,515,815.0,1,0,0,0,0,0,0,0,0,0
1143,501,516,814.0,1,0,0,0,0,0,0,0,0,0
1144,500,515,814.0,1,0,0,0,0,0,0,0,0,0
1145,500,515,814.0,1,0,0,0,0,0,0,0,0,0
1146,500,516,814.0,1,0,0,0,0,0,0,0,0,0
1147,499,516,814.0,1,0,0,0,0,0,0,0,0,0
1148,499,516,814.0,1,0,0,0,0,0,0,0,0,0
1149,498,515,815.0,1,0,0,0,0,0,0,0,0,0
1150,499,515,815.0,1,0,0,0,0,0,0,0,0,0
1151,499,516,814.0,1,0,0,0,0,0,0,0,0,0
1152,499,516,814.0,1,0,0,0,0,0,0,0,0,0
1153,500,516,815.0,1,0,0,0,0,0,0,0,0,0
1154,500,515,815.0,1,0,0,0,0,0,0,0,0,0
1155,500,515,815.0,1,0,0,0,0,0,0,0,0,0
1156,500,515,815.0,1,0,0,0,0,0,0,0,0,0
1157,501,515,815.0,1,0,0,0,0,0,0,0,0,0
1158,501,515,815.0,1,0,0,0,0,0,0,0,0,0
1159,502,514,815.0,1,0,0,0,0,0,0,0,0,0
1160,502,514,815.0,1,0,0,0,0,0,0,0,0,0
1161,502,515,815.0,1,0,0,0,0,0,0,0,0,0
1162,503,514,815.0,1,0,0,0,0,0,0,0,0,0
1163,503,513,814.0,1,0,0,0,0,0,0,0,0,0
1164,504,513,814.0,1,0,0,0,0,0,0,0,0,0
1165,505,513,815.0,1,0,0,0,0,0,0,0,0,0
1166,505,513,815.0,1,0,0,0,0,0,0,0,0,0
1167,505,513,814.0,1,0,0,0,0,0,0,0,0,0
1168,506,512,814.0,1,0,0,0,0,0,0,0,0,0
1169,506,512,814.0,1,0,0,0,0,0,0,0,0,0
1170,507,512,814.0,1,0,0,0,0,0,0,0,0,0
1171,507,512,815.0,1,0,0,0,0,0,0,0,0,0
1172,507,512,815.0,1,0,0,0,0,0,0,0,0,0
1173,507,512,815.0,1,0,0,0,0,0,0,0,0,0
1174,507,512,814.0,1,0,0,0,0,0,0,0,0,0
1175,508,512,815.0,1,0,0,0,0,0,0,0,0,0
1176,508,511,814.0,1,0,0,0,0,0,0,0,0,0
1177,508,512,815.0,1,0,0,0,0,0,0,0,0,0
1178,508,512,815.0,1,0,0,0,0,0,0,0,0,0
1179,508,511,814.0,1,0,0,0,0,0,0,0,0,0
1180,508,511,814.0,1,0,0,0,0,0,0,0,0,0
1181,508,511,815.0,1,0,0,0,0,0,0,0,0,0
1182,508,510,815.0,1,0,0,0,0,0,0,0,0,0
1183,508,510,815.0,1,0,0,0,0,0,0,0,0,0
1184,507,511,815.0,1,0,0,0,0,0,0,0,0,0
1185,508,511,815.0,1,0,0,0,0,0,0,0,0,0
1186,508,510,814.0,1,0,0,0,0,0,0,0,0,0
1187,508,510,814.0,1,0,0,0,0,0,0,0,0,0
1188,508,510,815.0,1,0,0,0,0,0,0,0,0,0
1189,507,510,814.0,1,0,0,0,0,0,0,0,0,0
1190,508,510,815.0,1,0,0,0,0,0,0,0,0,0
1191,507,510,815.0,1,0,0,0,0,0,0,0,0,0
1192,507,511,815.0,1,0,0,0,0,0,0,0,0,0
1193,507,511,815.0,1,0,0,0,0,0,0,0,0,0
1194,507,512,814.0,1,0,0,0,0,0,0,0,0,0
1195,506,511,815.0,1,0,0,0,0,0,0,0,0,0
1196,506,510,815.0,1,0,0,0,0,0,0,0,0,0
1197,507,510,815.0,1,0,0,0,0,0,0,0,0,0
1198,507,510,814.0,1,0,0,0,0,0,0,0,0,0
1199,507,510,814.0,1,0,0,0,0,0,0,0,0,0
1200,507,511,815.0,1,0,0,0,0,0,0,0,0,0
1201,506,511,814.0,1,0,0,0,0,0,0,0,0,0
1202,506,512,815.0,1,0,0,0,0,0,0,0,0,0
1203,507,511,814.0,1,0,0,0,0,0,0,0,0,0
1204,506,511,814.0,1,0,0,0,0,0,0,0,0,0
1205,506,512,815.0,1,0,0,0,0,0,0,0,0,0
1206,506,512,815.0,1,0,0,0,0,0,0,0,0,0
1207,506,512,814.0,1,0,0,0,0,0,0,0,0,0
1208,506,511,815.0,1,0,0,0,0,0,0,0,0,0
1209,505,511,815.0,1,0,0,0,0,0,0,0,0,0
1210,506,511,815.0,1,0,0,0,0,0,0,0,0,0
1211,506,510,815.0,1,0,0,0,0,0,0,0,0,0
1212,506,510,815.0,1,0,0,0,0,0,0,0,0,0
1213,506,510,815.0,1,0,0,0,0,0,0,0,0,0
1214,506,510,814.0,1,0,0,0,0,0,0,0,0,0
1215,506,511,814.0,1,0,0,0,0,0,0,0,0,0
1216,506,511,815.0,1,0,0,0,0,0,0,0,0,0
1217,506,510,814.0,1,0,0,0,0,0,0,0,0,0
1218,506,510,815.0,1,0,0,0,0,0,0,0,0,0
1219,506,510,815.0,1,0,0,0,0,0,0,0,0,0
1220,506,510,815.0,1,0,0,0,0,0,0,0,0,0
1221,506,510,815.0,1,0,0,0,0,0,0,0,0,0
1222,506,510,814.0,1,0,0,0,0,0,0,0,0,0
1223,507,510,814.0,1,0,0,0,0,0,0,0,0,0
1224,507,509,815.0,1,0,0,0,0,0,0,0,0,0
1225,507,509,814.0,1,0,0,0,0,0,0,0,0,0
1226,508,510,815.0,1,0,0,0,0,0,0,0,0,0
1227,507,510,815.0,1,0,0,0,0,0,0,0,0,0
1228,507,510,815.0,1,0,0,0,0,0,0,0,0,0
1229,506,510,815.0,1,0,0,0,0,0,0,0,0,0
1230,507,510,815.0,1,0,0,0,0,0,0,0,0,0
1231,507,509,814.0,1,0,0,0,0,0,0,0,0,0
1232,507,509,815.0,1,0,0,0,0,0,0,0,0,0
1233,507,510,815.0,1,0,0,0,0,0,0,0,0,0
1234,508,510,814.0,1,0,0,0,0,0,0,0,0,0
1235,508,510,815.0,1,0,0,0,0,0,0,0,0,0
1236,508,509,815.0,1,0,0,0,0,0,0,0,0,0
1237,509,510,815.0,1,0,0,0,0,0,0,0,0,0
1238,509,510,815.0,1,0,0,0,0,0,0,0,0,0
1239,509,510,815.0,1,0,0,0,0,0,0,0,0,0
1240,509,511,815.0,1,0,0,0,0,0,0,0,0,0
1241,508,510,815.0,1,0,0,0,0,0,0,0,0,0
1242,508,510,814.0,1,0,0,0,0,0,0,0,0,0
1243,509,510,815.0,1,0,0,0,0,0,0,0,0,0
1244,510,510,815.0,1,0,0,0,0,0,0,0,0,0
1245,510,510,815.0,1,0,0,0,0,0,0,0,0,0
1246,509,510,815.0,1,0,0,0,0,0,0,0,0,0
1247,510,509,815.0,1,0,0,0,0,0,0,0,0,0
1248,512,509,814.0,1,0,0,0,0,0,0,0,0,0
1249,513,509,815.0,1,0,0,0,0,0,0,0,0,0
1250,514,509,815.0,1,0,0,0,0,0,0,0,0,0
1251,514,509,815.0,1,0,0,0,0,0,0,0,0,0
1252,514,509,815.0,1,0,0,0,0,0,0,0,0,0
1253,515,509,815.0,1,0,0,0,0,0,0,0,0,0
1254,516,509,815.0,1,0,0,0,0,0,0,0,0,0
1255,519,508,815.0,1,0,0,0,0,0,0,0,0,0
1256,521,508,815.0,1,0,0,0,0,0,0,0,0,0
1257,521,507,815.0,1,0,0,0,0,0,0,0,0,0
1258,521,507,814.0,1,0,0,0,0,0,0,0,0,0
1259,520,506,815.0,1,0,0,0,0,0,0,0,0,0
1260,519,506,815.0,1,0,0,0,0,0,0,0,0,0
1261,518,506,815.0,1,0,0,0,0,0,0,0,0,0
1262,516,507,815.0,1,0,0,0,0,0,0,0,0,0
1263,514,507,815.0,1,0,0,0,0,0,0,0,0,0
1264,511,508,815.0,1,0,0,0,0,0,0,0,0,0
1265,510,510,814.0,1,0,0,0,0,0,0,0,0,0
1266,508,511,815.0,1,0,0,0,0,0,0,0,0,0
1267,506,511,815.0,1,0,0,0,0,0,0,0,0,0
1268,506,511,815.0,1,0,0,0,0,0,0,0,0,0
1269,505,511,815.0,1,0,0,0,0,0,0,0,0,0
1270,505,511,815.0,1,0,0,0,0,0,0,0,0,0
1271,505,511,815.0,1,0,0,0,0,0,0,0,0,0
1272,505,511,815.0,1,0,0,0,0,0,0,0,0,0
1273,505,511,815.0,1,0,0,0,0,0,0,0,0,0
1274,505,511,815.0,1,0,0,0,0,0,0,0,0,0
1275,505,511,815.0,1,0,0,0,0,0,0,0,0,0
1276,505,511,815.0,1,0,0,0,0,0,0,0,0,0
1277,505,511,815.0,1,0,0,0,0,0,0,0,0,0
1278,506,510,815.0,1,0,0,0,0,0,0,0,0,0
1279,507,511,815.0,1,0,0,0,0,0,0,0,0,0
1280,510,511,815.0,1,0,0,0,0,0,0,0,0,0
1281,516,509,815.0,1,0,0,0,0,0,0,0,0,0
1282,527,506,815.0,1,0,0,0,0,0,0,0,0,0
1283,542,502,815.0,1,0,0,0,0,0,0,0,0,0
1284,563,496,815.0,1,0,0,0,0,0,0,0,0,0
1285,590,487,815.0,1,0,0,0,0,0,0,0,0,0
1286,619,479,815.0,1,0,0,0,0,0,0,0,0,0
1287,632,475,815.0,1,0,0,0,0,0,0,0,0,0
1288,626,478,815.0,1,0,0,0,0,0,0,0,0,0
1289,600,486,815.0,1,0,0,0,0,0,0,0,0,0
1290,564,497,815.0,1,0,0,0,0,0,0,0,0,0
1291,530,508,815.0,1,0,0,0,0,0,0,0,0,0
1292,506,516,815.0,1,0,0,0,0,0,0,0,0,0
1293,490,520,815.0,1,0,0,0,0,0,0,0,0,0
1294,480,522,815.0,1,0,0,0,0,0,0,0,0,0
1295,475,521,815.0,1,0,0,0,0,0,0,0,0,0
1296,477,520,815.0,1,0,0,0,0,0,0,0,0,0
1297,481,518,815.0,1,0,0,0,0,0,0,0,0,0
1298,483,517,814.0,1,0,0,0,0,0,0,0,0,0
1299,484,516,815.0,1,0,0,0,0,0,0,0,0,0
1300,484,515,815.0,1,0,0,0,0,0,0,0,0,0
1301,484,515,815.0,1,0,0,0,0,0,0,0,0,0
1302,485,514,815.0,1,0,0,0,0,0,0,0,0,0
1303,486,514,815.0,1,0,0,0,0,0,0,0,0,0
1304,487,515,815.0,1,0,0,0,0,0,0,0,0,0
1305,488,514,815.0,1,0,0,0,0,0,0,0,0,0
1306,488,514,815.0,1,0,0,0,0,0,0,0,0,0
1307,489,513,815.0,1,0,0,0,0,0,0,0,0,0
1308,490,513,815.0,1,0,0,0,0,0,0,0,0,0
1309,491,512,815.0,1,0,0,0,0,0,0,0,0,0
1310,492,512,815.0,1,0,0,0,0,0,0,0,0,0
1311,493,512,815.0,1,0,0,0,0,0,0,0,0,0
1312,494,512,815.0,1,0,0,0,0,0,0,0,0,0
1313,495,512,815.0,1,0,0,0,0,0,0,0,0,0
1314,496,512,815.0,1,0,0,0,0,0,0,0,0,0
1315,496,512,815.0,1,0,0,0,0,0,0,0,0,0
1316,497,512,815.0,1,0,0,0,0,0,0,0,0,0
1317,498,511,815.0,1,0,0,0,0,0,0,0,0,0
1318,499,511,815.0,1,0,0,0,0,0,0,0,0,0
1319,500,510,815.0,1,0,0,0,0,0,0,0,0,0
1320,500,511,814.0,1,0,0,0,0,0,0,0,0,0
1321,501,511,815.0,1,0,0,0,0,0,0,0,0,0
1322,502,511,814.0,1,0,0,0,0,0,0,0,0,0
1323,502,510,815.0,1,0,0,0,0,0,0,0,0,0
1324,503,510,815.0,1,0,0,0,0,0,0,0,0,0
1325,504,509,815.0,1,0,0,0,0,0,0,0,0,0
1326,505,509,814.0,1,0,0,0,0,0,0,0,0,0
1327,505,510,815.0,1,0,0,0,0,0,0,0,0,0
1328,506,510,815.0,1,0,0,0,0,0,0,0,0,0
1329,507,510,815.0,1,0,0,0,0,0,0,0,0,0
1330,508,509,814.0,1,0,0,0,0,0,0,0,0,0
1331,509,509,814.0,1,0,0,0,0,0,0,0,0,0
1332,509,509,815.0,1,0,0,0,0,0,0,0,0,0
1333,510,509,815.0,1,0,0,0,0,0,0,0,0,0
1334,511,508,815.0,1,0,0,0,0,0,0,0,0,0
1335,511,508,815.0,1,0,0,0,0,0,0,0,0,0
1336,511,508,815.0,1,0,0,0,0,0,0,0,0,0
1337,512,509,815.0,1,0,0,0,0,0,0,0,0,0
1338,512,509,815.0,1,0,0,0,0,0,0,0,0,0
1339,512,508,815.0,1,0,0,0,0,0,0,0,0,0
1340,513,507,814.0,1,0,0,0,0,0,0,0,0,0
1341,514,507,815.0,1,0,0,0,0,0,0,0,0,0
1342,515,507,815.0,1,0,0,0,0,0,0,0,0,0
1343,515,507,815.0,1,0,0,0,0,0,0,0,0,0
1344,515,507,815.0,1,0,0,0,0,0,0,0,0,0
1345,515,507,815.0,1,0,0,0,0,0,0,0,0,0
1346,515,507,815.0,1,0,0,0,0,0,0,0,0,0
1347,515,507,815.0,1,0,0,0,0,0,0,0,0,0
1348,515,507,815.0,1,0,0,0,0,0,0,0,0,0
1349,515,508,815.0,1,0,0,0,0,0,0,0,0,0
1350,516,508,815.0,1,0,0,0,0,0,0,0,0,0
1351,516,507,815.0,1,0,0,0,0,0,0,0,0,0
1352,516,507,815.0,1,0,0,0,0,0,0,0,0,0
1353,516,507,815.0,1,0,0,0,0,0,0,0,0,0
1354,517,507,815.0,1,0,0,0,0,0,0,0,0,0
1355,517,507,815.0,1,0,0,0,0,0,0,0,0,0
1356,517,508,815.0,1,0,0,0,0,0,0,0,0,0
1357,516,507,815.0,1,0,0,0,0,0,0,0,0,0
1358,516,507,815.0,1,0,0,0,0,0,0,0,0,0
1359,515,507,815.0,1,0,0,0,0,0,0,0,0,0
1360,515,507,815.0,1,0,0,0,0,0,0,0,0,0
1361,515,507,815.0,1,0,0,0,0,0,0,0,0,0
1362,515,507,815.0,1,0,0,0,0,0,0,0,0,0
1363,515,508,815.0,1,0,0,0,0,0,0,0,0,0
1364,515,508,815.0,1,0,0,0,0,0,0,0,0,0
1365,515,509,815.0,1,0,0,0,0,0,0,0,0,0
1366,514,509,815.0,1,0,0,0,0,0,0,0,0,0
1367,513,510,815.0,1,0,0,0,0,0,0,0,0,0
1368,513,510,815.0,1,0,0,0,0,0,0,0,0,0
1369,512,510,815.0,1,0,0,0,0,0,0,0,0,0
1370,513,511,815.0,1,0,0,0,0,0,0,0,0,0
1371,512,511,815.0,1,0,0,0,0,0,0,0,0,0
1372,511,512,815.0,1,0,0,0,0,0,0,0,0,0
1373,509,513,815.0,1,0,0,0,0,0,0,0,0,0
1374,508,514,815.0,1,0,0,0,0,0,0,0,0,0
1375,507,514,815.0,1,0,0,0,0,0,0,0,0,0
1376,506,515,815.0,1,0,0,0,0,0,0,0,0,0
1377,505,515,815.0,1,0,0,0,0,0,0,0,0,0
1378,504,516,815.0,1,0,0,0,0,0,0,0,0,0
1379,503,516,815.0,1,0,0,0,0,0,0,0,0,0
1380,503,517,815.0,1,0,0,0,0,0,0,0,0,0
1381,503,517,815.0,1,0,0,0,0,0,0,0,0,0
1382,502,517,815.0,1,0,0,0,0,0,0,0,0,0
1383,502,516,815.0,1,0,0,0,0,0,0,0,0,0
1384,502,516,815.0,1,0,0,0,0,0,0,0,0,0
1385,502,516,815.0,1,0,0,0,0,0,0,0,0,0
1386,502,516,815.0,1,0,0,0,0,0,0,0,0,0
1387,502,515,815.0,1,0,0,0,0,0,0,0,0,0
1388,503,515,815.0,1,0,0,0,0,0,0,0,0,0
1389,503,514,815.0,1,0,0,0,0,0,0,0,0,0
1390,504,515,815.0,1,0,0,0,0,0,0,0,0,0
1391,504,514,815.0,1,0,0,0,0,0,0,0,0,0
1392,504,514,815.0,1,0,0,0,0,0,0,0,0,0
1393,504,514,815.0,1,0,0,0,0,0,0,0,0,0
1394,503,514,815.0,1,0,0,0,0,0,0,0,0,0
1395,503,514,815.0,1,0,0,0,0,0,0,0,0,0
1396,504,515,815.0,1,0,0,0,0,0,0,0,0,0
1397,505,515,815.0,1,0,0,0,0,0,0,0,0,0
1398,505,514,815.0,1,0,0,0,0,0,0,0,0,0
1399,506,514,815.0,1,0,0,0,0,0,0,0,0,0
1400,506,514,815.0,1,0,0,0,0,0,0,0,0,0
1401,506,513,814.0,1,0,0,0,0,0,0,0,0,0
1402,507,513,815.0,1,0,0,0,0,0,0,0,0,0
1403,507,513,815.0,1,0,0,0,0,0,0,0,0,0
1404,507,513,815.0,1,0,0,0,0,0,0,0,0,0
1405,507,513,815.0,1,0,0,0,0,0,0,0,0,0
1406,507,512,815.0,1,0,0,0,0,0,0,0,0,0
1407,507,512,815.0,1,0,0,0,0,0,0,0,0,0
1408,507,512,815.0,1,0,0,0,0,0,0,0,0,0
1409,508,512,815.0,1,0,0,0,0,0,0,0,0,0
1410,508,512,815.0,1,0,0,0,0,0,0,0,0,0
1411,509,512,815.0,1,0,0,0,0,0,0,0,0,0
1412,509,511,815.0,1,0,0,0,0,0,0,0,0,0
1413,509,512,815.0,1,0,0,0,0,0,0,0,0,0
1414,509,511,815.0,1,0,0,0,0,0,0,0,0,0
1415,508,511,815.0,1,0,0,0,0,0,0,0,0,0
1416,508,511,815.0,1,0,0,0,0,0,0,0,0,0
1417,509,511,815.0,1,0,0,0,0,0,0,0,0,0
1418,509,511,815.0,1,0,0,0,0,0,0,0,0,0
1419,509,511,815.0,1,0,0,0,0,0,0,0,0,0
1420,509,511,815.0,1,0,0,0,0,0,0,0,0,0
1421,508,511,815.0,1,0,0,0,0,0,0,0,0,0
1422,509,511,815.0,1,0,0,0,0,0,0,0,0,0
1423,509,511,815.0,1,0,0,0,0,0,0,0,0,0
1424,509,511,815.0,1,0,0,0,0,0,0,0,0,0
1425,508,512,815.0,1,0,0,0,0,0,0,0,0,0
1426,509,512,815.0,1,0,0,0,0,0,0,0,0,0
1427,509,511,815.0,1,0,0,0,0,0,0,0,0,0
1428,508,511,815.0,1,0,0,0,0,0,0,0,0,0
1429,508,511,815.0,1,0,0,0,0,0,0,0,0,0
1430,507,511,815.0,1,0,0,0,0,0,0,0,0,0
1431,507,511,815.0,1,0,0,0,0,0,0,0,0,0
1432,507,511,815.0,1,0,0,0,0,0,0,0,0,0
1433,506,511,815.0,1,0,0,0,0,0,0,0,0,0
1434,506,511,815.0,1,0,0,0,0,0,0,0,0,0
1435,506,511,815.0,1,0,0,0,0,0,0,0,0,0
1436,506,511,815.0,1,0,0,0,0,0,0,0,0,0
1437,506,510,815.0,1,0,0,0,0,0,0,0,0,0
1438,506,511,815.0,1,0,0,0,0,0,0,0,0,0
1439,506,511,815.0,1,0,0,0,0,0,0,0,0,0
1440,506,510,815.0,1,0,0,0,0,0,0,0,0,0
1441,507,511,815.0,1,0,0,0,0,0,0,0,0,0
1442,507,511,815.0,1,0,0,0,0,0,0,0,0,0
1443,507,511,815.0,1,0,0,0,0,0,0,0,0,0
1444,507,511,815.0,1,0,0,0,0,0,0,0,0,0
1445,507,510,815.0,1,0,0,0,0,0,0,0,0,0
1446,507,510,815.0,1,0,0,0,0,0,0,0,0,0
1447,507,510,815.0,1,0,0,0,0,0,0,0,0,0
1448,507,510,815.0,1,0,0,0,0,0,0,0,0,0
1449,507,509,815.0,1,0,0,0,0,0,0,0,0,0
1450,507,510,815.0,1,0,0,0,0,0,0,0,0,0
1451,507,510,815.0,1,0,0,0,0,0,0,0,0,0
1452,507,511,815.0,1,0,0,0,0,0,0,0,0,0
1453,507,511,815.0,1,0,0,0,0,0,0,0,0,0
1454,507,510,815.0,1,0,0,0,0,0,0,0,0,0
1455,507,509,815.0,1,0,0,0,0,0,0,0,0,0
1456,507,509,815.0,1,0,0,0,0,0,0,0,0,0
1457,508,510,815.0,1,0,0,0,0,0,0,0,0,0
1458,507,510,815.0,1,0,0,0,0,0,0,0,0,0
1459,507,510,815.0,1,0,0,0,0,0,0,0,0,0
1460,507,510,815.0,1,0,0,0,0,0,0,0,0,0
1461,508,510,815.0,1,0,0,0,0,0,0,0,0,0
1462,508,510,815.0,1,0,0,0,0,0,0,0,0,0
1463,508,510,815.0,1,0,0,0,0,0,0,0,0,0
1464,508,511,815.0,1,0,0,0,0,0,0,0,0,0
1465,508,511,815.0,1,0,0,0,0,0,0,0,0,0
1466,508,511,815.0,1,0,0,0,0,0,0,0,0,0
1467,508,510,815.0,1,0,0,0,0,0,0,0,0,0
1468,508,510,815.0,1,0,0,0,0,0,0,0,0,0
1469,509,510,815.0,1,0,0,0,0,0,0,0,0,0
1470,508,510,815.0,1,0,0,0,0,0,0,0,0,0
1471,508,510,815.0,1,0,0,0,0,0,0,0,0,0
1472,509,510,815.0,1,0,0,0,0,0,0,0,0,0
1473,509,510,815.0,1,0,0,0,0,0,0,0,0,0
1474,509,511,815.0,1,0,0,0,0,0,0,0,0,0
1475,508,511,815.0,1,0,0,0,0,0,0,0,0,0
1476,508,511,815.0,1,0,0,0,0,0,0,0,0,0
1477,508,510,815.0,1,0,0,0,0,0,0,0,0,0
1478,508,510,815.0,1,0,0,0,0,0,0,0,0,0
1479,508,510,815.0,1,0,0,0,0,0,0,0,0,0
1480,508,510,815.0,1,0,0,0,0,0,0,0,0,0
1481,508,510,815.0,1,0,0,0,0,0,0,0,0,0
1482,508,510,815.0,1,0,0,0,0,0,0,0,0,0
1483,508,511,815.0,1,0,0,0,0,0,0,0,0,0
1484,509,511,815.0,1,0,0,0,0,0,0,0,0,0
1485,509,510,815.0,1,0,0,0,0,0,0,0,0,0
1486,509,510,815.0,1,0,0,0,0,0,0,0,0,0
1487,509,510,815.0,1,0,0,0,0,0,0,0,0,0
1488,510,510,815.0,1,0,0,0,0,0,0,0,0,0
1489,510,510,815.0,1,0,0,0,0,0,0,0,0,0
1490,510,510,815.0,1,0,0,0,0,0,0,0,0,0
1491,510,510,815.0,1,0,0,0,0,0,0,0,0,0
1492,511,510,815.0,1,0,0,0,0,0,0,0,0,0
1493,513,510,815.0,1,0,0,0,0,0,0,0,0,0
1494,513,510,815.0,1,0,0,0,0,0,0,0,0,0
1495,514,508,815.0,1,0,0,0,0,0,0,0,0,0
1496,514,508,815.0,1,0,0,0,0,0,0,0,0,0
1497,514,508,815.0,1,0,0,0,0,0,0,0,0,0
1498,516,508,815.0,1,0,0,0,0,0,0,0,0,0
1499,519,508,815.0,1,0,0,0,0,0,0,0,0,0
1500,522,507,815.0,1,0,0,0,0,0,0,0,0,0
1501,523,506,815.0,1,0,0,0,0,0,0,0,0,0
1502,521,507,815.0,1,0,0,0,0,0,0,0,0,0
1503,519,507,815.0,1,0,0,0,0,0,0,0,0,0
1504,518,508,815.0,1,0,0,0,0,0,0,0,0,0
1505,517,508,815.0,1,0,0,0,0,0,0,0,0,0
1506,516,508,815.0,1,0,0,0,0,0,0,0,0,0
1507,514,508,815.0,1,0,0,0,0,0,0,0,0,0
1508,511,509,815.0,1,0,0,0,0,0,0,0,0,0
1509,510,510,815.0,1,0,0,0,0,0,0,0,0,0
1510,508,511,815.0,1,0,0,0,0,0,0,0,0,0
1511,506,511,815.0,1,0,0,0,0,0,0,0,0,0
1512,506,512,815.0,1,0,0,0,0,0,0,0,0,0
1513,505,513,815.0,1,0,0,0,0,0,0,0,0,0
1514,505,513,815.0,1,0,0,0,0,0,0,0,0,0
1515,505,512,815.0,1,0,0,0,0,0,0,0,0,0
1516,504,512,815.0,1,0,0,0,0,0,0,0,0,0
1517,504,511,815.0,1,0,0,0,0,0,0,0,0,0
1518,504,511,815.0,1,0,0,0,0,0,0,0,0,0
1519,504,511,815.0,1,0,0,0,0,0,0,0,0,0
1520,504,512,815.0,1,0,0,0,0,0,0,0,0,0
1521,504,512,815.0,1,0,0,0,0,0,0,0,0,0
1522,504,512,815.0,1,0,0,0,0,0,0,0,0,0
1523,505,511,815.0,1,0,0,0,0,0,0,0,0,0
1524,507,510,815.0,1,0,0,0,0,0,0,0,0,0
1525,513,509,815.0,1,0,0,0,0,0,0,0,0,0
1526,521,507,815.0,1,0,0,0,0,0,0,0,0,0
1527,536,503,815.0,1,0,0,0,0,0,0,0,0,0
1528,555,497,815.0,1,0,0,0,0,0,0,0,0,0
1529,580,489,815.0,1,0,0,0,0,0,0,0,0,0
1530,609,480,815.0,1,0,0,0,0,0,0,0,0,0
1531,629,475,815.0,1,0,0,0,0,0,0,0,0,0
1532,627,476,815.0,1,0,0,0,0,0,0,0,0,0
1533,607,483,815.0,1,0,0,0,0,0,0,0,0,0
1534,574,494,815.0,1,0,0,0,0,0,0,0,0,0
1535,539,506,815.0,1,0,0,0,0,0,0,0,0,0
1536,513,515,815.0,1,0,0,0,0,0,0,0,0,0
1537,495,520,815.0,1,0,0,0,0,0,0,0,0,0
1538,483,522,815.0,1,0,0,0,0,0,0,0,0,0
1539,476,522,815.0,1,0,0,0,0,0,0,0,0,0
1540,478,520,815.0,1,0,0,0,0,0,0,0,0,0
1541,482,518,815.0,1,0,0,0,0,0,0,0,0,0
1542,484,517,815.0,1,0,0,0,0,0,0,0,0,0
1543,485,516,815.0,1,0,0,0,0,0,0,0,0,0
1544,485,516,815.0,1,0,0,0,0,0,0,0,0,0
1545,485,516,815.0,1,0,0,0,0,0,0,0,0,0
1546,485,515,815.0,1,0,0,0,0,0,0,0,0,0
1547,486,513,815.0,1,0,0,0,0,0,0,0,0,0
1548,486,513,815.0,1,0,0,0,0,0,0,0,0,0
1549,487,514,815.0,1,0,0,0,0,0,0,0,0,0
1550,487,514,815.0,1,0,0,0,0,0,0,0,0,0
1551,488,513,815.0,1,0,0,0,0,0,0,0,0,0
1552,489,512,815.0,1,0,0,0,0,0,0,0,0,0
1553,490,513,815.0,1,0,0,0,0,0,0,0,0,0
1554,491,513,815.0,1,0,0,0,0,0,0,0,0,0
1555,492,513,815.0,1,0,0,0,0,0,0,0,0,0
1556,492,513,815.0,1,0,0,0,0,0,0,0,0,0
1557,493,513,815.0,1,0,0,0,0,0,0,0,0,0
1558,494,513,815.0,1,0,0,0,0,0,0,0,0,0
1559,494,512,815.0,1,0,0,0,0,0,0,0,0,0
1560,495,512,815.0,1,0,0,0,0,0,0,0,0,0
1561,496,512,815.0,1,0,0,0,0,0,0,0,0,0
1562,498,512,815.0,1,0,0,0,0,0,0,0,0,0
1563,498,511,815.0,1,0,0,0,0,0,0,0,0,0
1564,499,511,815.0,1,0,0,0,0,0,0,0,0,0
1565,500,511,815.0,1,0,0,0,0,0,0,0,0,0
1566,501,511,815.0,1,0,0,0,0,0,0,0,0,0
1567,501,511,815.0,1,0,0,0,0,0,0,0,0,0
1568,502,511,815.0,1,0,0,0,0,0,0,0,0,0
1569,503,510,815.0,1,0,0,0,0,0,0,0,0,0
1570,504,510,815.0,1,0,0,0,0,0,0,0,0,0
1571,505,510,815.0,1,0,0,0,0,0,0,0,0,0
1572,506,510,815.0,1,0,0,0,0,0,0,0,0,0
1573,507,510,815.0,1,0,0,0,0,0,0,0,0,0
1574,507,509,815.0,1,0,0,0,0,0,0,0,0,0
1575,508,509,815.0,1,0,0,0,0,0,0,0,0,0
1576,508,509,815.0,1,0,0,0,0,0,0,0,0,0
1577,508,508,815.0,1,0,0,0,0,0,0,0,0,0
1578,509,508,815.0,1,0,0,0,0,0,0,0,0,0
1579,509,507,815.0,1,0,0,0,0,0,0,0,0,0
1580,510,508,815.0,1,0,0,0,0,0,0,0,0,0
1581,511,508,815.0,1,0,0,0,0,0,0,0,0,0
1582,511,508,815.0,1,0,0,0,0,0,0,0,0,0
1583,512,508,815.0,1,0,0,0,0,0,0,0,0,0
1584,512,508,815.0,1,0,0,0,0,0,0,0,0,0
1585,513,508,815.0,1,0,0,0,0,0,0,0,0,0
1586,514,508,815.0,1,0,0,0,0,0,0,0,0,0
1587,514,507,815.0,1,0,0,0,0,0,0,0,0,0
1588,514,507,815.0,1,0,0,0,0,0,0,0,0,0
1589,515,507,815.0,1,0,0,0,0,0,0,0,0,0
1590,515,507,815.0,1,0,0,0,0,0,0,0,0,0
1591,515,507,815.0,1,0,0,0,0,0,0,0,0,0
1592,516,507,815.0,1,0,0,0,0,0,0,0,0,0
1593,515,508,815.0,1,0,0,0,0,0,0,0,0,0
1594,515,507,815.0,1,0,0,0,0,0,0,0,0,0
1595,514,507,815.0,1,0,0,0,0,0,0,0,0,0
1596,514,507,815.0,1,0,0,0,0,0,0,0,0,0
1597,514,508,815.0,1,0,0,0,0,0,0,0,0,0
1598,514,508,815.0,1,0,0,0,0,0,0,0,0,0
1599,514,507,815.0,1,0,0,0,0,0,0,0,0,0
1600,514,506,815.0,1,0,0,0,0,0,0,0,0,0
1601,514,507,815.0,1,0,0,0,0,0,0,0,0,0
1602,514,507,815.0,1,0,0,0,0,0,0,0,0,0
1603,513,507,815.0,1,0,0,0,0,0,0,0,0,0
1604,513,507,815.0,1,0,0,0,0,0,0,0,0,0
1605,512,507,815.0,1,0,0,0,0,0,0,0,0,0
1606,512,507,815.0,1,0,0,0,0,0,0,0,0,0
1607,512,507,815.0,1,0,0,0,0,0,0,0,0,0
1608,512,507,815.0,1,0,0,0,0,0,0,0,0,0
1609,512,508,815.0,1,0,0,0,0,0,0,0,0,0
1610,512,508,815.0,1,0,0,0,0,0,0,0,0,0
1611,512,508,815.0,1,0,0,0,0,0,0,0,0,0
1612,512,509,815.0,1,0,0,0,0,0,0,0,0,0
1613,512,510,815.0,1,0,0,0,0,0,0,0,0,0
1614,512,511,815.0,1,0,0,0,0,0,0,0,0,0
1615,511,511,815.0,1,0,0,0,0,0,0,0,0,0
1616,510,512,815.0,1,0,0,0,0,0,0,0,0,0
1617,509,512,815.0,1,0,0,0,0,0,0,0,0,0
1618,508,513,815.0,1,0,0,0,0,0,0,0,0,0
1619,507,514,815.0,1,0,0,0,0,0,0,0,0,0
1620,506,514,815.0,1,0,0,0,0,0,0,0,0,0
1621,505,514,815.0,1,0,0,0,0,0,0,0,0,0
1622,504,514,815.0,1,0,0,0,0,0,0,0,0,0
1623,503,515,815.0,1,0,0,0,0,0,0,0,0,0
1624,503,516,815.0,1,0,0,0,0,0,0,0,0,0
1625,502,516,815.0,1,0,0,0,0,0,0,0,0,0
1626,501,517,815.0,1,0,0,0,0,0,0,0,0,0
1627,501,517,815.0,1,0,0,0,0,0,0,0,0,0
1628,500,517,815.0,1,0,0,0,0,0,0,0,0,0
1629,500,516,815.0,1,0,0,0,0,0,0,0,0,0
1630,500,516,815.0,1,0,0,0,0,0,0,0,0,0
1631,500,515,815.0,1,0,0,0,0,0,0,0,0,0
1632,500,515,815.0,1,0,0,0,0,0,0,0,0,0
1633,501,515,815.0,1,0,0,0,0,0,0,0,0,0
1634,501,516,815.0,1,0,0,0,0,0,0,0,0,0
1635,501,516,815.0,1,0,0,0,0,0,0,0,0,0
1636,501,516,815.0,1,0,0,0,0,0,0,0,0,0
1637,502,515,815.0,1,0,0,0,0,0,0,0,0,0
1638,502,515,815.0,1,0,0,0,0,0,0,0,0,0
1639,503,515,815.0,1,0,0,0,0,0,0,0,0,0
1640,503,514,815.0,1,0,0,0,0,0,0,0,0,0
1641,503,514,815.0,1,0,0,0,0,0,0,0,0,0
1642,503,514,815.0,1,0,0,0,0,0,0,0,0,0
1643,503,514,815.0,1,0,0,0,0,0,0,0,0,0
1644,504,514,815.0,1,0,0,0,0,0,0,0,0,0
1645,505,513,815.0,1,0,0,0,0,0,0,0,0,0
1646,505,513,815.0,1,0,0,0,0,0,0,0,0,0
1647,505,512,815.0,1,0,0,0,0,0,0,0,0,0
1648,505,513,815.0,1,0,0,0,0,0,0,0,0,0
1649,505,512,815.0,1,0,0,0,0,0,0,0,0,0
1650,506,512,815.0,1,0,0,0,0,0,0,0,0,0
1651,506,512,815.0,1,0,0,0,0,0,0,0,0,0
1652,506,512,815.0,1,0,0,0,0,0,0,0,0,0
1653,507,511,815.0,1,0,0,0,0,0,0,0,0,0
1654,507,512,815.0,1,0,0,0,0,0,0,0,0,0
1655,508,512,815.0,1,0,0,0,0,0,0,0,0,0
1656,508,511,815.0,1,0,0,0,0,0,0,0,0,0
1657,508,511,815.0,1,0,0,0,0,0,0,0,0,0
1658,508,511,815.0,1,0,0,0,0,0,0,0,0,0
1659,507,511,815.0,1,0,0,0,0,0,0,0,0,0
1660,507,511,815.0,1,0,0,0,0,0,0,0,0,0
1661,507,511,815.0,1,0,0,0,0,0,0,0,0,0
1662,507,511,815.0,1,0,0,0,0,0,0,0,0,0
1663,507,510,815.0,1,0,0,0,0,0,0,0,0,0
1664,507,511,815.0,1,0,0,0,0,0,0,0,0,0
1665,507,511,815.0,1,0,0,0,0,0,0,0,0,0
1666,507,511,815.0,1,0,0,0,0,0,0,0,0,0
1667,508,511,815.0,1,0,0,0,0,0,0,0,0,0
1668,507,511,815.0,1,0,0,0,0,0,0,0,0,0
1669,507,511,815.0,1,0,0,0,0,0,0,0,0,0
1670,506,511,815.0,1,0,0,0,0,0,0,0,0,0
1671,506,511,815.0,1,0,0,0,0,0,0,0,0,0
1672,505,511,815.0,1,0,0,0,0,0,0,0,0,0
1673,505,511,815.0,1,0,0,0,0,0,0,0,0,0
1674,505,510,815.0,1,0,0,0,0,0,0,0,0,0
1675,505,510,815.0,1,0,0,0,0,0,0,0,0,0
1676,506,511,815.0,1,0,0,0,0,0,0,0,0,0
1677,506,512,815.0,1,0,0,0,0,0,0,0,0,0
1678,506,512,815.0,1,0,0,0,0,0,0,0,0,0
1679,506,511,815.0,1,0,0,0,0,0,0,0,0,0
1680,506,511,815.0,1,0,0,0,0,0,0,0,0,0
1681,506,511,815.0,1,0,0,0,0,0,0,0,0,0
1682,506,510,815.0,1,0,0,0,0,0,0,0,0,0
1683,506,511,815.0,1,0,0,0,0,0,0,0,0,0
1684,506,511,815.0,1,0,0,0,0,0,0,0,0,0
1685,506,511,815.0,1,0,0,0,0,0,0,0,0,0
1686,506,511,815.0,1,0,0,0,0,0,0,0,0,0
1687,506,511,815.0,1,0,0,0,0,0,0,0,0,0
1688,506,512,815.0,1,0,0,0,0,0,0,0,0,0
1689,506,512,815.0,1,0,0,0,0,0,0,0,0,0
1690,506,512,815.0,1,0,0,0,0,0,0,0,0,0
1691,506,511,815.0,1,0,0,0,0,0,0,0,0,0
1692,506,511,815.0,1,0,0,0,0,0,0,0,0,0
1693,506,511,815.0,1,0,0,0,0,0,0,0,0,0
1694,506,511,815.0,1,0,0,0,0,0,0,0,0,0
1695,506,511,815.0,1,0,0,0,0,0,0,0,0,0
1696,506,511,815.0,1,0,0,0,0,0,0,0,0,0
1697,506,510,815.0,1,0,0,0,0,0,0,0,0,0
1698,506,510,815.0,1,0,0,0,0,0,0,0,0,0
1699,506,510,815.0,1,0,0,0,0,0,0,0,0,0
1700,507,510,815.0,1,0,0,0,0,0,0,0,0,0
1701,506,510,815.0,1,0,0,0,0,0,0,0,0,0
1702,506,511,815.0,1,0,0,0,0,0,0,0,0,0
1703,506,511,815.0,1,0,0,0,0,0,0,0,0,0
1704,506,510,815.0,1,0,0,0,0,0,0,0,0,0
1705,507,510,815.0,1,0,0,0,0,0,0,0,0,0
1706,508,510,815.0,1,0,0,0,0,0,0,0,0,0
1707,508,509,815.0,1,0,0,0,0,0,0,0,0,0
1708,507,510,815.0,1,0,0,0,0,0,0,0,0,0
1709,507,511,815.0,1,0,0,0,0,0,0,0,0,0
1710,507,510,815.0,1,0,0,0,0,0,0,0,0,0
1711,507,510,815.0,1,0,0,0,0,0,0,0,0,0
1712,508,510,815.0,1,0,0,0,0,0,0,0,0,0
1713,508,510,815.0,1,0,0,0,0,0,0,0,0,0
1714,508,510,815.0,1,0,0,0,0,0,0,0,0,0
1715,508,510,815.0,1,0,0,0,0,0,0,0,0,0
1716,507,510,815.0,1,0,0,0,0,0,0,0,0,0
1717,508,510,815.0,1,0,0,0,0,0,0,0,0,0
1718,508,511,815.0,1,0,0,0,0,0,0,0,0,0
1719,508,510,815.0,1,0,0,0,0,0,0,0,0,0
1720,509,511,815.0,1,0,0,0,0,0,0,0,0,0
1721,509,511,815.0,1,0,0,0,0,0,0,0,0,0
1722,508,511,815.0,1,0,0,0,0,0,0,0,0,0
1723,508,511,815.0,1,0,0,0,0,0,0,0,0,0
1724,509,510,815.0,1,0,0,0,0,0,0,0,0,0
1725,509,510,815.0,1,0,0,0,0,0,0,0,0,0
1726,509,510,815.0,1,0,0,0,0,0,0,0,0,0
1727,509,510,815.0,1,0,0,0,0,0,0,0,0,0
1728,509,510,815.0,1,0,0,0,0,0,0,0,0,0
1729,509,510,815.0,1,0,0,0,0,0,0,0,0,0
1730,509,510,815.0,1,0,0,0,0,0,0,0,0,0
1731,509,510,815.0,1,0,0,0,0,0,0,0,0,0
1732,509,510,815.0,1,0,0,0,0,0,0,0,0,0
1733,510,510,815.0,1,0,0,0,0,0,0,0,0,0
1734,509,510,815.0,1,0,0,0,0,0,0,0,0,0
1735,508,510,815.0,1,0,0,0,0,0,0,0,0,0
1736,508,510,815.0,1,0,0,0,0,0,0,0,0,0
1737,509,510,815.0,1,0,0,0,0,0,0,0,0,0
1738,510,510,815.0,1,0,0,0,0,0,0,0,0,0
1739,510,510,815.0,1,0,0,0,0,0,0,0,0,0
1740,509,510,815.0,1,0,0,0,0,0,0,0,0,0
1741,510,509,815.0,1,0,0,0,0,0,0,0,0,0
1742,511,509,815.0,1,0,0,0,0,0,0,0,0,0
1743,512,509,815.0,1,0,0,0,0,0,0,0,0,0
1744,512,509,815.0,1,0,0,0,0,0,0,0,0,0
1745,512,509,815.0,1,0,0,0,0,0,0,0,0,0
1746,514,508,815.0,1,0,0,0,0,0,0,0,0,0
1747,519,508,815.0,1,0,0,0,0,0,0,0,0,0
1748,522,507,815.0,1,0,0,0,0,0,0,0,0,0
1749,523,506,815.0,1,0,0,0,0,0,0,0,0,0
1750,523,507,815.0,1,0,0,0,0,0,0,0,0,0
1751,521,507,815.0,1,0,0,0,0,0,0,0,0,0
1752,519,507,815.0,1,0,0,0,0,0,0,0,0,0
1753,518,507,815.0,1,0,0,0,0,0,0,0,0,0
1754,517,507,815.0,1,0,0,0,0,0,0,0,0,0
1755,514,508,815.0,1,0,0,0,0,0,0,0,0,0
1756,512,509,815.0,1,0,0,0,0,0,0,0,0,0
1757,510,510,815.0,1,0,0,0,0,0,0,0,0,0
1758,509,511,815.0,1,0,0,0,0,0,0,0,0,0
1759,508,511,815.0,1,0,0,0,0,0,0,0,0,0
1760,507,512,815.0,1,0,0,0,0,0,0,0,0,0
1761,506,512,815.0,1,0,0,0,0,0,0,0,0,0
1762,506,511,815.0,1,0,0,0,0,0,0,0,0,0
1763,506,511,815.0,1,0,0,0,0,0,0,0,0,0
1764,506,511,815.0,1,0,0,0,0,0,0,0,0,0
1765,507,510,815.0,1,0,0,0,0,0,0,0,0,0
1766,506,511,815.0,1,0,0,0,0,0,0,0,0,0
1767,506,511,815.0,1,0,0,0,0,0,0,0,0,0
1768,506,510,815.0,1,0,0,0,0,0,0,0,0,0
1769,506,511,815.0,1,0,0,0,0,0,0,0,0,0
1770,506,511,815.0,1,0,0,0,0,0,0,0,0,0
1771,506,511,815.0,1,0,0,0,0,0,0,0,0,0
1772,508,511,815.0,1,0,0,0,0,0,0,0,0,0
1773,511,511,815.0,1,0,0,0,0,0,0,0,0,0
1774,517,508,815.0,1,0,0,0,0,0,0,0,0,0
1775,528,505,815.0,1,0,0,0,0,0,0,0,0,0
1776,544,500,815.0,1,0,0,0,0,0,0,0,0,0
1777,565,492,815.0,1,0,0,0,0,0,0,0,0,0
1778,593,484,815.0,1,0,0,0,0,0,0,0,0,0
1779,620,476,815.0,1,0,0,0,0,0,0,0,0,0
1780,629,474,815.0,1,0,0,0,0,0,0,0,0,0
1781,619,479,815.0,1,0,0,0,0,0,0,0,0,0
1782,591,489,815.0,1,0,0,0,0,0,0,0,0,0
1783,555,500,815.0,1,0,0,0,0,0,0,0,0,0
1784,524,511,815.0,1,0,0,0,0,0,0,0,0,0
1785,503,517,815.0,1,0,0,0,0,0,0,0,0,0
1786,489,521,815.0,1,0,0,0,0,0,0,0,0,0
1787,480,522,815.0,1,0,0,0,0,0,0,0,0,0
1788,477,521,815.0,1,0,0,0,0,0,0,0,0,0
1789,480,519,815.0,1,0,0,0,0,0,0,0,0,0
1790,483,517,815.0,1,0,0,0,0,0,0,0,0,0
1791,485,515,815.0,1,0,0,0,0,0,0,0,0,0
1792,485,514,815.0,1,0,0,0,0,0,0,0,0,0
1793,485,514,815.0,1,0,0,0,0,0,0,0,0,0
1794,485,515,815.0,1,0,0,0,0,0,0,0,0,0
1795,485,515,815.0,1,0,0,0,0,0,0,0,0,0
1796,486,514,815.0,1,0,0,0,0,0,0,0,0,0
1797,486,514,815.0,1,0,0,0,0,0,0,0,0,0
1798,486,513,815.0,1,0,0,0,0,0,0,0,0,0
1799,488,514,815.0,1,0,0,0,0,0,0,0,0,0
1800,490,513,815.0,1,0,0,0,0,0,0,0,0,0
1801,490,513,815.0,1,0,0,0,0,0,0,0,0,0
1802,492,513,815.0,1,0,0,0,0,0,0,0,0,0
1803,492,513,815.0,1,0,0,0,0,0,0,0,0,0
1804,493,513,815.0,1,0,0,0,0,0,0,0,0,0
1805,494,512,815.0,1,0,0,0,0,0,0,0,0,0
1806,495,512,815.0,1,0,0,0,0,0,0,0,0,0
1807,496,512,815.0,1,0,0,0,0,0,0,0,0,0
1808,496,512,815.0,1,0,0,0,0,0,0,0,0,0
1809,497,512,815.0,1,0,0,0,0,0,0,0,0,0
1810,498,512,815.0,1,0,0,0,0,0,0,0,0,0
1811,499,512,815.0,1,0,0,0,0,0,0,0,0,0
1812,499,511,815.0,1,0,0,0,0,0,0,0,0,0
1813,500,511,815.0,1,0,0,0,0,0,0,0,0,0
1814,501,511,815.0,1,0,0,0,0,0,0,0,0,0
1815,502,510,815.0,1,0,0,0,0,0,0,0,0,0
1816,503,510,815.0,1,0,0,0,0,0,0,0,0,0
1817,503,510,815.0,1,0,0,0,0,0,0,0,0,0
1818,504,510,815.0,1,0,0,0,0,0,0,0,0,0
1819,505,510,815.0,1,0,0,0,0,0,0,0,0,0
1820,506,510,815.0,1,0,0,0,0,0,0,0,0,0
1821,506,510,815.0,1,0,0,0,0,0,0,0,0,0
1822,507,510,815.0,1,0,0,0,0,0,0,0,0,0
1823,508,509,815.0,1,0,0,0,0,0,0,0,0,0
1824,509,508,815.0,1,0,0,0,0,0,0,0,0,0
1825,510,508,815.0,1,0,0,0,0,0,0,0,0,0
1826,510,508,815.0,1,0,0,0,0,0,0,0,0,0
1827,511,508,815.0,1,0,0,0,0,0,0,0,0,0
1828,512,508,815.0,1,0,0,0,0,0,0,0,0,0
1829,512,508,815.0,1,0,0,0,0,0,0,0,0,0
1830,513,508,815.0,1,0,0,0,0,0,0,0,0,0
1831,514,508,815.0,1,0,0,0,0,0,0,0,0,0
1832,514,508,815.0,1,0,0,0,0,0,0,0,0,0
1833,514,508,815.0,1,0,0,0,0,0,0,0,0,0
1834,514,507,815.0,1,0,0,0,0,0,0,0,0,0
1835,514,507,815.0,1,0,0,0,0,0,0,0,0,0
1836,515,507,815.0,1,0,0,0,0,0,0,0,0,0
1837,515,507,815.0,1,0,0,0,0,0,0,0,0,0
1838,515,507,815.0,1,0,0,0,0,0,0,0,0,0
1839,515,507,815.0,1,0,0,0,0,0,0,0,0,0
1840,515,507,815.0,1,0,0,0,0,0,0,0,0,0
1841,515,506,815.0,1,0,0,0,0,0,0,0,0,0
1842,515,506,815.0,1,0,0,0,0,0,0,0,0,0
1843,514,506,815.0,1,0,0,0,0,0,0,0,0,0
1844,514,506,815.0,1,0,0,0,0,0,0,0,0,0
1845,514,506,815.0,1,0,0,0,0,0,0,0,0,0
1846,514,506,815.0,1,0,0,0,0,0,0,0,0,0
1847,513,507,815.0,1,0,0,0,0,0,0,0,0,0
1848,513,507,815.0,1,0,0,0,0,0,0,0,0,0
1849,513,506,816.0,1,0,0,0,0,0,0,0,0,0
1850,512,506,815.0,1,0,0,0,0,0,0,0,0,0
1851,513,507,816.0,1,0,0,0,0,0,0,0,0,0
1852,513,507,815.0,1,0,0,0,0,0,0,0,0,0
1853,512,507,815.0,1,0,0,0,0,0,0,0,0,0
1854,512,507,815.0,1,0,0,0,0,0,0,0,0,0
1855,512,507,815.0,1,0,0,0,0,0,0,0,0,0
1856,512,507,815.0,1,0,0,0,0,0,0,0,0,0
1857,512,508,816.0,1,0,0,0,0,0,0,0,0,0
1858,512,508,815.0,1,0,0,0,0,0,0,0,0,0
1859,512,508,815.0,1,0,0,0,0,0,0,0,0,0
1860,512,509,815.0,1,0,0,0,0,0,0,0,0,0
1861,512,510,816.0,1,0,0,0,0,0,0,0,0,0
1862,512,510,815.0,1,0,0,0,0,0,0,0,0,0
1863,512,511,815.0,1,0,0,0,0,0,0,0,0,0
1864,511,512,815.0,1,0,0,0,0,0,0,0,0,0
1865,510,513,816.0,1,0,0,0,0,0,0,0,0,0
1866,509,513,815.0,1,0,0,0,0,0,0,0,0,0
1867,509,514,815.0,1,0,0,0,0,0,0,0,0,0
1868,508,515,815.0,1,0,0,0,0,0,0,0,0,0
1869,507,515,815.0,1,0,0,0,0,0,0,0,0,0
1870,506,515,816.0,1,0,0,0,0,0,0,0,0,0
1871,505,516,816.0,1,0,0,0,0,0,0,0,0,0
1872,504,517,815.0,1,0,0,0,0,0,0,0,0,0
1873,503,517,816.0,1,0,0,0,0,0,0,0,0,0
1874,502,518,816.0,1,0,0,0,0,0,0,0,0,0
1875,501,517,815.0,1,0,0,0,0,0,0,0,0,0
1876,501,517,815.0,1,0,0,0,0,0,0,0,0,0
1877,501,517,815.0,1,0,0,0,0,0,0,0,0,0
1878,502,518,815.0,1,0,0,0,0,0,0,0,0,0
1879,502,517,815.0,1,0,0,0,0,0,0,0,0,0
1880,502,517,816.0,1,0,0,0,0,0,0,0,0,0
1881,502,516,816.0,1,0,0,0,0,0,0,0,0,0
1882,502,515,815.0,1,0,0,0,0,0,0,0,0,0
1883,502,515,815.0,1,0,0,0,0,0,0,0,0,0
1884,503,515,815.0,1,0,0,0,0,0,0,0,0,0
1885,503,516,815.0,1,0,0,0,0,0,0,0,0,0
1886,504,516,815.0,1,0,0,0,0,0,0,0,0,0
1887,504,515,815.0,1,0,0,0,0,0,0,0,0,0
1888,504,515,816.0,1,0,0,0,0,0,0,0,0,0
1889,505,515,816.0,1,0,0,0,0,0,0,0,0,0
1890,505,515,816.0,1,0,0,0,0,0,0,0,0,0
1891,505,514,815.0,1,0,0,0,0,0,0,0,0,0
1892,506,513,816.0,1,0,0,0,0,0,0,0,0,0
1893,505,513,815.0,1,0,0,0,0,0,0,0,0,0
1894,505,513,815.0,1,0,0,0,0,0,0,0,0,0
1895,506,513,815.0,1,0,0,0,0,0,0,0,0,0
1896,507,512,816.0,1,0,0,0,0,0,0,0,0,0
1897,507,512,816.0,1,0,0,0,0,0,0,0,0,0
1898,507,512,816.0,1,0,0,0,0,0,0,0,0,0
1899,508,513,816.0,1,0,0,0,0,0,0,0,0,0
1900,508,513,816.0,1,0,0,0,0,0,0,0,0,0
1901,508,512,816.0,1,0,0,0,0,0,0,0,0,0
1902,508,512,816.0,1,0,0,0,0,0,0,0,0,0
1903,508,512,815.0,1,0,0,0,0,0,0,0,0,0
1904,509,511,816.0,1,0,0,0,0,0,0,0,0,0
1905,509,511,815.0,1,0,0,0,0,0,0,0,0,0
1906,509,511,816.0,1,0,0,0,0,0,0,0,0,0
1907,508,511,815.0,1,0,0,0,0,0,0,0,0,0
1908,508,511,816.0,1,0,0,0,0,0,0,0,0,0
1909,508,511,816.0,1,0,0,0,0,0,0,0,0,0
1910,509,511,816.0,1,0,0,0,0,0,0,0,0,0
1911,509,511,816.0,1,0,0,0,0,0,0,0,0,0
1912,508,512,816.0,1,0,0,0,0,0,0,0,0,0
1913,508,511,816.0,1,0,0,0,0,0,0,0,0,0
1914,507,510,816.0,1,0,0,0,0,0,0,0,0,0
1915,507,510,815.0,1,0,0,0,0,0,0,0,0,0
1916,508,511,816.0,1,0,0,0,0,0,0,0,0,0
1917,509,511,816.0,1,0,0,0,0,0,0,0,0,0
1918,508,511,815.0,1,0,0,0,0,0,0,0,0,0
1919,508,511,815.0,1,0,0,0,0,0,0,0,0,0
1920,508,512,816.0,1,0,0,0,0,0,0,0,0,0
1921,508,511,816.0,1,0,0,0,0,0,0,0,0,0
1922,508,511,816.0,1,0,0,0,0,0,0,0,0,0
1923,508,511,816.0,1,0,0,0,0,0,0,0,0,0
1924,508,511,816.0,1,0,0,0,0,0,0,0,0,0
1925,508,511,816.0,1,0,0,0,0,0,0,0,0,0
1926,508,511,816.0,1,0,0,0,0,0,0,0,0,0
1927,508,511,815.0,1,0,0,0,0,0,0,0,0,0
1928,508,512,816.0,1,0,0,0,0,0,0,0,0,0
1929,508,512,816.0,1,0,0,0,0,0,0,0,0,0
1930,508,511,816.0,1,0,0,0,0,0,0,0,0,0
1931,508,511,816.0,1,0,0,0,0,0,0,0,0,0
1932,508,511,816.0,1,0,0,0,0,0,0,0,0,0
1933,508,511,816.0,1,0,0,0,0,0,0,0,0,0
1934,508,512,816.0,1,0,0,0,0,0,0,0,0,0
1935,508,512,815.0,1,0,0,0,0,0,0,0,0,0
1936,508,511,816.0,1,0,0,0,0,0,0,0,0,0
1937,507,511,816.0,1,0,0,0,0,0,0,0,0,0
1938,507,512,816.0,1,0,0,0,0,0,0,0,0,0
1939,507,512,815.0,1,0,0,0,0,0,0,0,0,0
1940,507,512,816.0,1,0,0,0,0,0,0,0,0,0
1941,507,512,815.0,1,0,0,0,0,0,0,0,0,0
1942,507,512,816.0,1,0,0,0,0,0,0,0,0,0
1943,507,511,816.0,1,0,0,0,0,0,0,0,0,0
1944,507,511,816.0,1,0,0,0,0,0,0,0,0,0
1945,507,511,816.0,1,0,0,0,0,0,0,0,0,0
1946,508,511,816.0,1,0,0,0,0,0,0,0,0,0
1947,508,511,816.0,1,0,0,0,0,0,0,0,0,0
1948,508,511,816.0,1,0,0,0,0,0,0,0,0,0
1949,509,511,816.0,1,0,0,0,0,0,0,0,0,0
1950,509,510,816.0,1,0,0,0,0,0,0,0,0,0
1951,508,511,816.0,1,0,0,0,0,0,0,0,0,0
1952,508,510,816.0,1,0,0,0,0,0,0,0,0,0
1953,507,510,816.0,1,0,0,0,0,0,0,0,0,0
1954,508,510,816.0,1,0,0,0,0,0,0,0,0,0
1955,508,510,816.0,1,0,0,0,0,0,0,0,0,0
1956,508,510,816.0,1,0,0,0,0,0,0,0,0,0
1957,508,510,816.0,1,0,0,0,0,0,0,0,0,0
1958,508,510,816.0,1,0,0,0,0,0,0,0,0,0
1959,508,510,816.0,1,0,0,0,0,0,0,0,0,0
1960,508,510,816.0,1,0,0,0,0,0,0,0,0,0
1961,508,510,816.0,1,0,0,0,0,0,0,0,0,0
1962,508,511,816.0,1,0,0,0,0,0,0,0,0,0
1963,508,512,815.0,1,0,0,0,0,0,0,0,0,0
1964,508,511,816.0,1,0,0,0,0,0,0,0,0,0
1965,508,510,816.0,1,0,0,0,0,0,0,0,0,0
1966,509,510,816.0,1,0,0,0,0,0,0,0,0,0
1967,509,510,816.0,1,0,0,0,0,0,0,0,0,0
1968,509,510,816.0,1,0,0,0,0,0,0,0,0,0
1969,509,510,816.0,1,0,0,0,0,0,0,0,0,0
1970,508,510,816.0,1,0,0,0,0,0,0,0,0,0
1971,508,510,816.0,1,0,0,0,0,0,0,0,0,0
1972,509,509,816.0,1,0,0,0,0,0,0,0,0,0
1973,509,510,816.0,1,0,0,0,0,0,0,0,0,0
1974,510,510,816.0,1,0,0,0,0,0,0,0,0,0
1975,509,510,816.0,1,0,0,0,0,0,0,0,0,0
1976,508,510,816.0,1,0,0,0,0,0,0,0,0,0
1977,508,510,816.0,1,0,0,0,0,0,0,0,0,0
1978,508,509,816.0,1,0,0,0,0,0,0,0,0,0
1979,509,509,816.0,1,0,0,0,0,0,0,0,0,0
1980,508,509,816.0,1,0,0,0,0,0,0,0,0,0
1981,508,509,816.0,1,0,0,0,0,0,0,0,0,0
1982,508,510,816.0,1,0,0,0,0,0,0,0,0,0
1983,508,510,816.0,1,0,0,0,0,0,0,0,0,0
1984,507,510,816.0,1,0,0,0,0,0,0,0,0,0
1985,507,511,816.0,1,0,0,0,0,0,0,0,0,0
1986,507,510,816.0,1,0,0,0,0,0,0,0,0,0
1987,506,510,815.0,1,0,0,0,0,0,0,0,0,0
1988,506,509,816.0,1,0,0,0,0,0,0,0,0,0
1989,508,509,816.0,1,0,0,0,0,0,0,0,0,0
1990,509,509,816.0,1,0,0,0,0,0,0,0,0,0
1991,508,509,816.0,1,0,0,0,0,0,0,0,0,0
1992,510,509,816.0,1,0,0,0,0,0,0,0,0,0
1993,514,507,816.0,1,0,0,0,0,0,0,0,0,0
1994,519,506,816.0,1,0,0,0,0,0,0,0,0,0
1995,519,507,816.0,1,0,0,0,0,0,0,0,0,0
1996,518,507,816.0,1,0,0,0,0,0,0,0,0,0
1997,516,507,816.0,1,0,0,0,0,0,0,0,0,0
1998,516,508,816.0,1,0,0,0,0,0,0,0,0,0
1999,516,507,816.0,1,0,0,0,0,0,0,0,0,0
2000,515,507,816.0,1,0,0,0,0,0,0,0,0,0
2001,513,508,816.0,1,0,0,0,0,0,0,0,0,0
2002,510,509,816.0,1,0,0,0,0,0,0,0,0,0
2003,509,511,816.0,1,0,0,0,0,0,0,0,0,0
2004,508,511,816.0,1,0,0,0,0,0,0,0,0,0
2005,508,511,816.0,1,0,0,0,0,0,0,0,0,0
2006,507,512,816.0,1,0,0,0,0,0,0,0,0,0
2007,506,512,816.0,1,0,0,0,0,0,0,0,0,0
2008,506,512,816.0,1,0,0,0,0,0,0,0,0,0
2009,507,511,816.0,1,0,0,0,0,0,0,0,0,0
2010,508,511,816.0,1,0,0,0,0,0,0,0,0,0
2011,507,512,816.0,1,0,0,0,0,0,0,0,0,0
2012,506,511,816.0,1,0,0,0,0,0,0,0,0,0
2013,506,511,816.0,1,0,0,0,0,0,0,0,0,0
2014,506,511,816.0,1,0,0,0,0,0,0,0,0,0
2015,506,511,816.0,1,0,0,0,0,0,0,0,0,0
2016,506,512,816.0,1,0,0,0,0,0,0,0,0,0
2017,507,511,816.0,1,0,0,0,0,0,0,0,0,0
2018,510,510,816.0,1,0,0,0,0,0,0,0,0,0
2019,516,508,816.0,1,0,0,0,0,0,0,0,0,0
2020,525,505,816.0,1,0,0,0,0,0,0,0,0,0
2021,540,500,816.0,1,0,0,0,0,0,0,0,0,0
2022,560,494,816.0,1,0,0,0,0,0,0,0,0,0
2023,587,484,816.0,1,0,0,0,0,0,0,0,0,0
2024,615,475,816.0,1,0,0,0,0,0,0,0,0,0
2025,628,471,816.0,1,0,0,0,0,0,0,0,0,0
2026,620,475,816.0,1,0,0,0,0,0,0,0,0,0
2027,596,486,816.0,1,0,0,0,0,0,0,0,0,0
2028,563,499,816.0,1,0,0,0,0,0,0,0,0,0
2029,530,511,816.0,1,0,0,0,0,0,0,0,0,0
2030,508,518,816.0,1,0,0,0,0,0,0,0,0,0
2031,494,521,816.0,1,0,0,0,0,0,0,0,0,0
2032,484,522,816.0,1,0,0,0,0,0,0,0,0,0
2033,478,522,816.0,1,0,0,0,0,0,0,0,0,0
2034,477,521,816.0,1,0,0,0,0,0,0,0,0,0
2035,480,518,816.0,1,0,0,0,0,0,0,0,0,0
2036,483,517,816.0,1,0,0,0,0,0,0,0,0,0
2037,485,516,816.0,1,0,0,0,0,0,0,0,0,0
2038,485,516,816.0,1,0,0,0,0,0,0,0,0,0
2039,485,516,816.0,1,0,0,0,0,0,0,0,0,0
2040,485,516,816.0,1,0,0,0,0,0,0,0,0,0
2041,486,515,816.0,1,0,0,0,0,0,0,0,0,0
2042,487,514,816.0,1,0,0,0,0,0,0,0,0,0
2043,487,514,816.0,1,0,0,0,0,0,0,0,0,0
2044,487,513,816.0,1,0,0,0,0,0,0,0,0,0
2045,487,513,816.0,1,0,0,0,0,0,0,0,0,0
2046,488,513,816.0,1,0,0,0,0,0,0,0,0,0
2047,489,512,816.0,1,0,0,0,0,0,0,0,0,0
2048,490,512,816.0,1,0,0,0,0,0,0,0,0,0
2049,491,512,816.0,1,0,0,0,0,0,0,0,0,0
2050,492,512,816.0,1,0,0,0,0,0,0,0,0,0
2051,493,512,816.0,1,0,0,0,0,0,0,0,0,0
2052,494,512,816.0,1,0,0,0,0,0,0,0,0,0
2053,494,512,816.0,1,0,0,0,0,0,0,0,0,0
2054,495,512,816.0,1,0,0,0,0,0,0,0,0,0
2055,495,512,816.0,1,0,0,0,0,0,0,0,0,0
2056,496,512,816.0,1,0,0,0,0,0,0,0,0,0
2057,497,511,816.0,1,0,0,0,0,0,0,0,0,0
2058,497,511,816.0,1,0,0,0,0,0,0,0,0,0
2059,498,511,816.0,1,0,0,0,0,0,0,0,0,0
2060,499,510,816.0,1,0,0,0,0,0,0,0,0,0
2061,500,510,816.0,1,0,0,0,0,0,0,0,0,0
2062,500,510,816.0,1,0,0,0,0,0,0,0,0,0
2063,501,510,816.0,1,0,0,0,0,0,0,0,0,0
2064,502,509,816.0,1,0,0,0,0,0,0,0,0,0
2065,502,509,816.0,1,0,0,0,0,0,0,0,0,0
2066,503,510,816.0,1,0,0,0,0,0,0,0,0,0
2067,504,510,816.0,1,0,0,0,0,0,0,0,0,0
2068,504,508,816.0,1,0,0,0,0,0,0,0,0,0
2069,504,508,816.0,1,0,0,0,0,0,0,0,0,0
2070,505,508,816.0,1,0,0,0,0,0,0,0,0,0
2071,506,507,816.0,1,0,0,0,0,0,0,0,0,0
2072,507,507,816.0,1,0,0,0,0,0,0,0,0,0
2073,508,507,816.0,1,0,0,0,0,0,0,0,0,0
2074,509,507,816.0,1,0,0,0,0,0,0,0,0,0
2075,510,507,816.0,1,0,0,0,0,0,0,0,0,0
2076,510,508,816.0,1,0,0,0,0,0,0,0,0,0
2077,510,508,816.0,1,0,0,0,0,0,0,0,0,0
2078,510,507,816.0,1,0,0,0,0,0,0,0,0,0
2079,511,507,816.0,1,0,0,0,0,0,0,0,0,0
2080,511,507,816.0,1,0,0,0,0,0,0,0,0,0
2081,511,507,816.0,1,0,0,0,0,0,0,0,0,0
2082,512,507,816.0,1,0,0,0,0,0,0,0,0,0
2083,511,507,816.0,1,0,0,0,0,0,0,0,0,0
2084,512,507,816.0,1,0,0,0,0,0,0,0,0,0
2085,512,507,816.0,1,0,0,0,0,0,0,0,0,0
2086,513,507,816.0,1,0,0,0,0,0,0,0,0,0
2087,513,508,816.0,1,0,0,0,0,0,0,0,0,0
2088,513,507,816.0,1,0,0,0,0,0,0,0,0,0
2089,513,507,816.0,1,0,0,0,0,0,0,0,0,0
2090,512,507,816.0,1,0,0,0,0,0,0,0,0,0
2091,512,507,816.0,1,0,0,0,0,0,0,0,0,0
2092,511,507,816.0,1,0,0,0,0,0,0,0,0,0
2093,511,507,816.0,1,0,0,0,0,0,0,0,0,0
2094,512,506,816.0,1,0,0,0,0,0,0,0,0,0
2095,512,507,816.0,1,0,0,0,0,0,0,0,0,0
2096,512,507,816.0,1,0,0,0,0,0,0,0,0,0
2097,511,507,816.0,1,0,0,0,0,0,0,0,0,0
2098,511,507,816.0,1,0,0,0,0,0,0,0,0,0
2099,511,507,816.0,1,0,0,0,0,0,0,0,0,0
2100,511,507,816.0,1,0,0,0,0,0,0,0,0,0
2101,512,507,816.0,1,0,0,0,0,0,0,0,0,0
2102,511,508,816.0,1,0,0,0,0,0,0,0,0,0
2103,510,508,816.0,1,0,0,0,0,0,0,0,0,0
2104,510,508,816.0,1,0,0,0,0,0,0,0,0,0
2105,510,508,816.0,1,0,0,0,0,0,0,0,0,0
2106,510,509,816.0,1,0,0,0,0,0,0,0,0,0
2107,510,510,816.0,1,0,0,0,0,0,0,0,0,0
2108,510,510,816.0,1,0,0,0,0,0,0,0,0,0
2109,509,511,816.0,1,0,0,0,0,0,0,0,0,0
2110,509,512,816.0,1,0,0,0,0,0,0,0,0,0
2111,508,513,816.0,1,0,0,0,0,0,0,0,0,0
2112,506,514,816.0,1,0,0,0,0,0,0,0,0,0
2113,504,514,816.0,1,0,0,0,0,0,0,0,0,0
2114,504,515,816.0,1,0,0,0,0,0,0,0,0,0
2115,503,516,816.0,1,0,0,0,0,0,0,0,0,0
2116,503,516,816.0,1,0,0,0,0,0,0,0,0,0
2117,502,516,816.0,1,0,0,0,0,0,0,0,0,0
2118,501,516,816.0,1,0,0,0,0,0,0,0,0,0
2119,500,516,816.0,1,0,0,0,0,0,0,0,0,0
2120,499,517,816.0,1,0,0,0,0,0,0,0,0,0
2121,499,516,816.0,1,0,0,0,0,0,0,0,0,0
2122,499,516,816.0,1,0,0,0,0,0,0,0,0,0
2123,498,516,816.0,1,0,0,0,0,0,0,0,0,0
2124,499,516,816.0,1,0,0,0,0,0,0,0,0,0
2125,499,516,816.0,1,0,0,0,0,0,0,0,0,0
2126,499,515,816.0,1,0,0,0,0,0,0,0,0,0
2127,500,516,816.0,1,0,0,0,0,0,0,0,0,0
2128,500,515,816.0,1,0,0,0,0,0,0,0,0,0
2129,500,516,816.0,1,0,0,0,0,0,0,0,0,0
2130,501,515,816.0,1,0,0,0,0,0,0,0,0,0
2131,502,515,816.0,1,0,0,0,0,0,0,0,0,0
2132,502,514,816.0,1,0,0,0,0,0,0,0,0,0
2133,502,513,816.0,1,0,0,0,0,0,0,0,0,0
2134,502,514,816.0,1,0,0,0,0,0,0,0,0,0
2135,503,514,816.0,1,0,0,0,0,0,0,0,0,0
2136,503,514,816.0,1,0,0,0,0,0,0,0,0,0
2137,504,513,816.0,1,0,0,0,0,0,0,0,0,0
2138,504,513,816.0,1,0,0,0,0,0,0,0,0,0
2139,504,513,816.0,1,0,0,0,0,0,0,0,0,0
2140,504,513,816.0,1,0,0,0,0,0,0,0,0,0
2141,505,513,816.0,1,0,0,0,0,0,0,0,0,0
2142,505,512,816.0,1,0,0,0,0,0,0,0,0,0
2143,505,512,816.0,1,0,0,0,0,0,0,0,0,0
2144,505,512,816.0,1,0,0,0,0,0,0,0,0,0
2145,505,511,816.0,1,0,0,0,0,0,0,0,0,0
2146,506,511,816.0,1,0,0,0,0,0,0,0,0,0
2147,507,511,816.0,1,0,0,0,0,0,0,0,0,0
2148,508,511,816.0,1,0,0,0,0,0,0,0,0,0
2149,507,511,816.0,1,0,0,0,0,0,0,0,0,0
2150,506,511,816.0,1,0,0,0,0,0,0,0,0,0
2151,507,511,816.0,1,0,0,0,0,0,0,0,0,0
2152,507,511,816.0,1,0,0,0,0,0,0,0,0,0
2153,508,511,816.0,1,0,0,0,0,0,0,0,0,0
2154,507,511,816.0,1,0,0,0,0,0,0,0,0,0
2155,507,512,816.0,1,0,0,0,0,0,0,0,0,0
2156,507,511,816.0,1,0,0,0,0,0,0,0,0,0
2157,508,511,816.0,1,0,0,0,0,0,0,0,0,0
2158,508,511,816.0,1,0,0,0,0,0,0,0,0,0
2159,508,511,816.0,1,0,0,0,0,0,0,0,0,0
2160,507,512,816.0,1,0,0,0,0,0,0,0,0,0
2161,507,512,816.0,1,0,0,0,0,0,0,0,0,0
2162,507,512,816.0,1,0,0,0,0,0,0,0,0,0
2163,506,511,816.0,1,0,0,0,0,0,0,0,0,0
2164,507,511,816.0,1,0,0,0,0,0,0,0,0,0
2165,507,511,816.0,1,0,0,0,0,0,0,0,0,0
2166,507,511,816.0,1,0,0,0,0,0,0,0,0,0
2167,506,511,816.0,1,0,0,0,0,0,0,0,0,0
2168,506,511,816.0,1,0,0,0,0,0,0,0,0,0
2169,506,511,816.0,1,0,0,0,0,0,0,0,0,0
2170,506,512,816.0,1,0,0,0,0,0,0,0,0,0
2171,507,511,816.0,1,0,0,0,0,0,0,0,0,0
2172,506,511,816.0,1,0,0,0,0,0,0,0,0,0
2173,506,511,816.0,1,0,0,0,0,0,0,0,0,0
2174,506,511,816.0,1,0,0,0,0,0,0,0,0,0
2175,506,511,816.0,1,0,0,0,0,0,0,0,0,0
2176,506,510,816.0,1,0,0,0,0,0,0,0,0,0
2177,506,510,816.0,1,0,0,0,0,0,0,0,0,0
2178,506,510,816.0,1,0,0,0,0,0,0,0,0,0
2179,506,511,816.0,1,0,0,0,0,0,0,0,0,0
2180,507,511,816.0,1,0,0,0,0,0,0,0,0,0
2181,507,511,816.0,1,0,0,0,0,0,0,0,0,0
2182,507,511,816.0,1,0,0,0,0,0,0,0,0,0
2183,507,512,816.0,1,0,0,0,0,0,0,0,0,0
2184,506,511,816.0,1,0,0,0,0,0,0,0,0,0
2185,506,511,816.0,1,0,0,0,0,0,0,0,0,0
2186,506,512,816.0,1,0,0,0,0,0,0,0,0,0
2187,506,512,816.0,1,0,0,0,0,0,0,0,0,0
2188,506,511,816.0,1,0,0,0,0,0,0,0,0,0
2189,506,510,816.0,1,0,0,0,0,0,0,0,0,0
2190,506,510,816.0,1,0,0,0,0,0,0,0,0,0
2191,507,510,816.0,1,0,0,0,0,0,0,0,0,0
2192,507,511,816.0,1,0,0,0,0,0,0,0,0,0
2193,507,511,816.0,1,0,0,0,0,0,0,0,0,0
2194,507,511,816.0,1,0,0,0,0,0,0,0,0,0
2195,507,510,816.0,1,0,0,0,0,0,0,0,0,0
2196,507,510,816.0,1,0,0,0,0,0,0,0,0,0
2197,507,510,816.0,1,0,0,0,0,0,0,0,0,0
2198,507,510,816.0,1,0,0,0,0,0,0,0,0,0
2199,507,511,816.0,1,0,0,0,0,0,0,0,0,0
2200,507,510,816.0,1,0,0,0,0,0,0,0,0,0
2201,508,510,816.0,1,0,0,0,0,0,0,0,0,0
2202,508,510,816.0,1,0,0,0,0,0,0,0,0,0
2203,509,510,816.0,1,0,0,0,0,0,0,0,0,0
2204,509,510,816.0,1,0,0,0,0,0,0,0,0,0
2205,508,510,816.0,1,0,0,0,0,0,0,0,0,0
2206,509,510,816.0,1,0,0,0,0,0,0,0,0,0
2207,509,510,816.0,1,0,0,0,0,0,0,0,0,0
2208,508,510,816.0,1,0,0,0,0,0,0,0,0,0
2209,508,510,816.0,1,0,0,0,0,0,0,0,0,0
2210,507,510,816.0,1,0,0,0,0,0,0,0,0,0
2211,507,509,816.0,1,0,0,0,0,0,0,0,0,0
2212,508,509,816.0,1,0,0,0,0,0,0,0,0,0
2213,509,509,816.0,1,0,0,0,0,0,0,0,0,0
2214,510,509,816.0,1,0,0,0,0,0,0,0,0,0
2215,515,509,816.0,1,0,0,0,0,0,0,0,0,0
2216,519,507,816.0,1,0,0,0,0,0,0,0,0,0
2217,520,507,816.0,1,0,0,0,0,0,0,0,0,0
2218,519,507,816.0,1,0,0,0,0,0,0,0,0,0
2219,519,508,816.0,1,0,0,0,0,0,0,0,0,0
2220,518,508,816.0,1,0,0,0,0,0,0,0,0,0
2221,517,507,816.0,1,0,0,0,0,0,0,0,0,0
2222,516,508,816.0,1,0,0,0,0,0,0,0,0,0
2223,515,508,816.0,1,0,0,0,0,0,0,0,0,0
2224,513,509,816.0,1,0,0,0,0,0,0,0,0,0
2225,512,510,816.0,1,0,0,0,0,0,0,0,0,0
2226,511,511,816.0,1,0,0,0,0,0,0,0,0,0
2227,510,511,816.0,1,0,0,0,0,0,0,0,0,0
2228,510,510,816.0,1,0,0,0,0,0,0,0,0,0
2229,510,510,816.0,1,0,0,0,0,0,0,0,0,0
2230,510,511,816.0,1,0,0,0,0,0,0,0,0,0
2231,510,511,816.0,1,0,0,0,0,0,0,0,0,0
2232,509,511,816.0,1,0,0,0,0,0,0,0,0,0
2233,509,511,816.0,1,0,0,0,0,0,0,0,0,0
2234,508,510,816.0,1,0,0,0,0,0,0,0,0,0
2235,508,511,816.0,1,0,0,0,0,0,0,0,0,0
2236,508,511,816.0,1,0,0,0,0,0,0,0,0,0
2237,508,512,816.0,1,0,0,0,0,0,0,0,0,0
2238,509,512,816.0,1,0,0,0,0,0,0,0,0,0
2239,509,511,816.0,1,0,0,0,0,0,0,0,0,0
2240,510,511,816.0,1,0,0,0,0,0,0,0,0,0
2241,512,510,816.0,1,0,0,0,0,0,0,0,0,0
2242,517,509,816.0,1,0,0,0,0,0,0,0,0,0
2243,526,506,816.0,1,0,0,0,0,0,0,0,0,0
2244,541,502,816.0,1,0,0,0,0,0,0,0,0,0
2245,562,495,816.0,1,0,0,0,0,0,0,0,0,0
2246,587,487,816.0,1,0,0,0,0,0,0,0,0,0
2247,614,479,816.0,1,0,0,0,0,0,0,0,0,0
2248,628,475,817.0,1,0,0,0,0,0,0,0,0,0
2249,623,478,817.0,1,0,0,0,0,0,0,0,0,0
2250,598,489,816.0,1,0,0,0,0,0,0,0,0,0
2251,568,503,817.0,1,0,0,0,0,0,0,0,0,0
2252,537,515,816.0,1,0,0,0,0,0,0,0,0,0
2253,512,521,816.0,1,0,0,0,0,0,0,0,0,0
2254,499,524,816.0,1,0,0,0,0,0,0,0,0,0
2255,489,524,816.0,1,0,0,0,0,0,0,0,0,0
2256,481,523,817.0,1,0,0,0,0,0,0,0,0,0
2257,476,522,816.0,1,0,0,0,0,0,0,0,0,0
2258,475,520,817.0,1,0,0,0,0,0,0,0,0,0
2259,480,518,816.0,1,0,0,0,0,0,0,0,0,0
2260,484,516,817.0,1,0,0,0,0,0,0,0,0,0
2261,486,514,817.0,1,0,0,0,0,0,0,0,0,0
2262,487,514,817.0,1,0,0,0,0,0,0,0,0,0
2263,487,514,817.0,1,0,0,0,0,0,0,0,0,0
2264,487,514,817.0,1,0,0,0,0,0,0,0,0,0
2265,487,513,816.0,1,0,0,0,0,0,0,0,0,0
2266,487,512,816.0,1,0,0,0,0,0,0,0,0,0
2267,489,513,816.0,1,0,0,0,0,0,0,0,0,0
2268,490,513,816.0,1,0,0,0,0,0,0,0,0,0
2269,491,512,816.0,1,0,0,0,0,0,0,0,0,0
2270,491,512,816.0,1,0,0,0,0,0,0,0,0,0
2271,492,512,816.0,1,0,0,0,0,0,0,0,0,0
2272,493,512,817.0,1,0,0,0,0,0,0,0,0,0
2273,494,512,816.0,1,0,0,0,0,0,0,0,0,0
2274,494,512,817.0,1,0,0,0,0,0,0,0,0,0
2275,495,511,817.0,1,0,0,0,0,0,0,0,0,0
2276,497,511,817.0,1,0,0,0,0,0,0,0,0,0
2277,498,510,817.0,1,0,0,0,0,0,0,0,0,0
2278,498,510,816.0,1,0,0,0,0,0,0,0,0,0
2279,499,511,816.0,1,0,0,0,0,0,0,0,0,0
2280,501,511,817.0,1,0,0,0,0,0,0,0,0,0
2281,503,511,816.0,1,0,0,0,0,0,0,0,0,0
2282,504,511,816.0,1,0,0,0,0,0,0,0,0,0
2283,504,511,816.0,1,0,0,0,0,0,0,0,0,0
2284,504,509,817.0,1,0,0,0,0,0,0,0,0,0
2285,505,510,817.0,1,0,0,0,0,0,0,0,0,0
2286,505,510,816.0,1,0,0,0,0,0,0,0,0,0
2287,506,509,817.0,1,0,0,0,0,0,0,0,0,0
2288,507,508,817.0,1,0,0,0,0,0,0,0,0,0
2289,508,508,817.0,1,0,0,0,0,0,0,0,0,0
2290,509,508,816.0,1,0,0,0,0,0,0,0,0,0
2291,509,508,816.0,1,0,0,0,0,0,0,0,0,0
2292,509,508,816.0,1,0,0,0,0,0,0,0,0,0
2293,510,508,816.0,1,0,0,0,0,0,0,0,0,0
2294,511,508,817.0,1,0,0,0,0,0,0,0,0,0
2295,511,508,816.0,1,0,0,0,0,0,0,0,0,0
2296,512,508,817.0,1,0,0,0,0,0,0,0,0,0
2297,512,508,817.0,1,0,0,0,0,0,0,0,0,0
2298,511,507,817.0,1,0,0,0,0,0,0,0,0,0
2299,511,507,816.0,1,0,0,0,0,0,0,0,0,0
2300,512,507,816.0,1,0,0,0,0,0,0,0,0,0
2301,512,507,816.0,1,0,0,0,0,0,0,0,0,0
2302,512,507,817.0,1,0,0,0,0,0,0,0,0,0
2303,513,506,816.0,1,0,0,0,0,0,0,0,0,0
2304,512,506,817.0,1,0,0,0,0,0,0,0,0,0
2305,512,506,816.0,1,0,0,0,0,0,0,0,0,0
2306,512,506,817.0,1,0,0,0,0,0,0,0,0,0
2307,513,507,817.0,1,0,0,0,0,0,0,0,0,0
2308,513,507,816.0,1,0,0,0,0,0,0,0,0,0
2309,513,507,817.0,1,0,0,0,0,0,0,0,0,0
2310,513,507,817.0,1,0,0,0,0,0,0,0,0,0
2311,514,507,817.0,1,0,0,0,0,0,0,0,0,0
2312,513,507,817.0,1,0,0,0,0,0,0,0,0,0
2313,513,507,817.0,1,0,0,0,0,0,0,0,0,0
2314,514,507,817.0,1,0,0,0,0,0,0,0,0,0
2315,513,506,816.0,1,0,0,0,0,0,0,0,0,0
2316,513,506,817.0,1,0,0,0,0,0,0,0,0,0
2317,512,507,817.0,1,0,0,0,0,0,0,0,0,0
2318,512,507,817.0,1,0,0,0,0,0,0,0,0,0
2319,512,507,817.0,1,0,0,0,0,0,0,0,0,0
2320,512,507,817.0,1,0,0,0,0,0,0,0,0,0
2321,512,507,817.0,1,0,0,0,0,0,0,0,0,0
2322,512,507,817.0,1,0,0,0,0,0,0,0,0,0
2323,512,507,817.0,1,0,0,0,0,0,0,0,0,0
2324,511,507,817.0,1,0,0,0,0,0,0,0,0,0
2325,512,508,817.0,1,0,0,0,0,0,0,0,0,0
2326,512,509,817.0,1,0,0,0,0,0,0,0,0,0
2327,512,510,816.0,1,0,0,0,0,0,0,0,0,0
2328,512,510,817.0,1,0,0,0,0,0,0,0,0,0
2329,511,510,817.0,1,0,0,0,0,0,0,0,0,0
2330,510,510,817.0,1,0,0,0,0,0,0,0,0,0
2331,510,511,817.0,1,0,0,0,0,0,0,0,0,0
2332,509,512,817.0,1,0,0,0,0,0,0,0,0,0
2333,508,513,817.0,1,0,0,0,0,0,0,0,0,0
2334,507,513,817.0,1,0,0,0,0,0,0,0,0,0
2335,507,514,817.0,1,0,0,0,0,0,0,0,0,0
2336,507,515,817.0,1,0,0,0,0,0,0,0,0,0
2337,505,515,817.0,1,0,0,0,0,0,0,0,0,0
2338,504,516,817.0,1,0,0,0,0,0,0,0,0,0
2339,503,516,817.0,1,0,0,0,0,0,0,0,0,0
2340,501,517,817.0,1,0,0,0,0,0,0,0,0,0
2341,501,517,816.0,1,0,0,0,0,0,0,0,0,0
2342,500,517,817.0,1,0,0,0,0,0,0,0,0,0
2343,500,517,817.0,1,0,0,0,0,0,0,0,0,0
2344,500,517,817.0,1,0,0,0,0,0,0,0,0,0
2345,500,518,817.0,1,0,0,0,0,0,0,0,0,0
2346,499,517,817.0,1,0,0,0,0,0,0,0,0,0
2347,498,516,817.0,1,0,0,0,0,0,0,0,0,0
2348,499,516,817.0,1,0,0,0,0,0,0,0,0,0
2349,500,516,817.0,1,0,0,0,0,0,0,0,0,0
2350,501,516,817.0,1,0,0,0,0,0,0,0,0,0
2351,502,517,816.0,1,0,0,0,0,0,0,0,0,0
2352,502,516,817.0,1,0,0,0,0,0,0,0,0,0
2353,501,515,816.0,1,0,0,0,0,0,0,0,0,0
2354,502,514,817.0,1,0,0,0,0,0,0,0,0,0
2355,502,515,816.0,1,0,0,0,0,0,0,0,0,0
2356,503,514,817.0,1,0,0,0,0,0,0,0,0,0
2357,504,515,817.0,1,0,0,0,0,0,0,0,0,0
2358,506,514,817.0,1,0,0,0,0,0,0,0,0,0
2359,506,514,817.0,1,0,0,0,0,0,0,0,0,0
2360,504,514,817.0,1,0,0,0,0,0,0,0,0,0
2361,504,513,817.0,1,0,0,0,0,0,0,0,0,0
2362,504,513,817.0,1,0,0,0,0,0,0,0,0,0
2363,505,512,816.0,1,0,0,0,0,0,0,0,0,0
2364,506,512,817.0,1,0,0,0,0,0,0,0,0,0
2365,507,512,816.0,1,0,0,0,0,0,0,0,0,0
2366,507,511,817.0,1,0,0,0,0,0,0,0,0,0
2367,508,511,817.0,1,0,0,0,0,0,0,0,0,0
2368,508,511,817.0,1,0,0,0,0,0,0,0,0,0
2369,507,511,817.0,1,0,0,0,0,0,0,0,0,0
2370,507,511,817.0,1,0,0,0,0,0,0,0,0,0
2371,507,511,817.0,1,0,0,0,0,0,0,0,0,0
2372,507,511,817.0,1,0,0,0,0,0,0,0,0,0
2373,507,511,817.0,1,0,0,0,0,0,0,0,0,0
2374,508,511,817.0,1,0,0,0,0,0,0,0,0,0
2375,509,511,817.0,1,0,0,0,0,0,0,0,0,0
2376,508,511,817.0,1,0,0,0,0,0,0,0,0,0
2377,507,511,817.0,1,0,0,0,0,0,0,0,0,0
2378,507,511,817.0,1,0,0,0,0,0,0,0,0,0
2379,507,510,817.0,1,0,0,0,0,0,0,0,0,0
2380,507,511,817.0,1,0,0,0,0,0,0,0,0,0
2381,508,512,817.0,1,0,0,0,0,0,0,0,0,0
2382,507,511,817.0,1,0,0,0,0,0,0,0,0,0
2383,506,511,817.0,1,0,0,0,0,0,0,0,0,0
2384,506,511,817.0,1,0,0,0,0,0,0,0,0,0
2385,506,512,817.0,1,0,0,0,0,0,0,0,0,0
2386,507,512,817.0,1,0,0,0,0,0,0,0,0,0
2387,507,511,817.0,1,0,0,0,0,0,0,0,0,0
2388,506,511,817.0,1,0,0,0,0,0,0,0,0,0
2389,506,511,817.0,1,0,0,0,0,0,0,0,0,0
2390,506,512,817.0,1,0,0,0,0,0,0,0,0,0
2391,506,511,817.0,1,0,0,0,0,0,0,0,0,0
2392,507,511,817.0,1,0,0,0,0,0,0,0,0,0
2393,507,511,817.0,1,0,0,0,0,0,0,0,0,0
2394,507,511,817.0,1,0,0,0,0,0,0,0,0,0
2395,506,511,817.0,1,0,0,0,0,0,0,0,0,0
2396,506,511,817.0,1,0,0,0,0,0,0,0,0,0
2397,507,511,817.0,1,0,0,0,0,0,0,0,0,0
2398,507,511,817.0,1,0,0,0,0,0,0,0,0,0
2399,506,512,817.0,1,0,0,0,0,0,0,0,0,0
2400,506,513,817.0,1,0,0,0,0,0,0,0,0,0
2401,506,512,817.0,1,0,0,0,0,0,0,0,0,0
2402,506,512,817.0,1,0,0,0,0,0,0,0,0,0
2403,505,512,817.0,1,0,0,0,0,0,0,0,0,0
2404,505,511,817.0,1,0,0,0,0,0,0,0,0,0
2405,507,511,817.0,1,0,0,0,0,0,0,0,0,0
2406,507,512,817.0,1,0,0,0,0,0,0,0,0,0
2407,508,512,817.0,1,0,0,0,0,0,0,0,0,0
2408,507,512,817.0,1,0,0,0,0,0,0,0,0,0
2409,507,512,817.0,1,0,0,0,0,0,0,0,0,0
2410,507,511,817.0,1,0,0,0,0,0,0,0,0,0
2411,507,512,817.0,1,0,0,0,0,0,0,0,0,0
2412,508,512,817.0,1,0,0,0,0,0,0,0,0,0
2413,508,511,817.0,1,0,0,0,0,0,0,0,0,0
2414,509,511,817.0,1,0,0,0,0,0,0,0,0,0
2415,509,511,817.0,1,0,0,0,0,0,0,0,0,0
2416,509,511,817.0,1,0,0,0,0,0,0,0,0,0
2417,509,510,817.0,1,0,0,0,0,0,0,0,0,0
2418,509,511,817.0,1,0,0,0,0,0,0,0,0,0
2419,510,511,817.0,1,0,0,0,0,0,0,0,0,0
2420,509,511,817.0,1,0,0,0,0,0,0,0,0,0
2421,509,511,817.0,1,0,0,0,0,0,0,0,0,0
2422,509,511,817.0,1,0,0,0,0,0,0,0,0,0
2423,509,511,817.0,1,0,0,0,0,0,0,0,0,0
2424,509,510,817.0,1,0,0,0,0,0,0,0,0,0
2425,509,511,817.0,1,0,0,0,0,0,0,0,0,0
2426,509,510,817.0,1,0,0,0,0,0,0,0,0,0
2427,509,510,817.0,1,0,0,0,0,0,0,0,0,0
2428,509,509,817.0,1,0,0,0,0,0,0,0,0,0
2429,508,509,817.0,1,0,0,0,0,0,0,0,0,0
2430,508,509,817.0,1,0,0,0,0,0,0,0,0,0
2431,510,509,817.0,1,0,0,0,0,0,0,0,0,0
2432,510,509,817.0,1,0,0,0,0,0,0,0,0,0
2433,510,509,817.0,1,0,0,0,0,0,0,0,0,0
2434,513,509,817.0,1,0,0,0,0,0,0,0,0,0
2435,518,507,817.0,1,0,0,0,0,0,0,0,0,0
2436,522,507,817.0,1,0,0,0,0,0,0,0,0,0
2437,521,507,817.0,1,0,0,0,0,0,0,0,0,0
2438,518,507,817.0,1,0,0,0,0,0,0,0,0,0
2439,516,507,817.0,1,0,0,0,0,0,0,0,0,0
2440,516,507,817.0,1,0,0,0,0,0,0,0,0,0
2441,516,508,817.0,1,0,0,0,0,0,0,0,0,0
2442,516,508,817.0,1,0,0,0,0,0,0,0,0,0
2443,514,509,817.0,1,0,0,0,0,0,0,0,0,0
2444,513,510,817.0,1,0,0,0,0,0,0,0,0,0
2445,512,510,817.0,1,0,0,0,0,0,0,0,0,0
2446,510,511,817.0,1,0,0,0,0,0,0,0,0,0
2447,509,511,817.0,1,0,0,0,0,0,0,0,0,0
2448,509,511,817.0,1,0,0,0,0,0,0,0,0,0
2449,509,512,817.0,1,0,0,0,0,0,0,0,0,0
2450,509,511,817.0,1,0,0,0,0,0,0,0,0,0
2451,509,511,817.0,1,0,0,0,0,0,0,0,0,0
2452,510,511,817.0,1,0,0,0,0,0,0,0,0,0
2453,510,511,817.0,1,0,0,0,0,0,0,0,0,0
2454,509,511,817.0,1,0,0,0,0,0,0,0,0,0
2455,508,511,817.0,1,0,0,0,0,0,0,0,0,0
2456,508,510,817.0,1,0,0,0,0,0,0,0,0,0
2457,509,510,817.0,1,0,0,0,0,0,0,0,0,0
2458,509,510,817.0,1,0,0,0,0,0,0,0,0,0
2459,510,511,817.0,1,0,0,0,0,0,0,0,0,0
2460,512,509,817.0,1,0,0,0,0,0,0,0,0,0
2461,518,508,817.0,1,0,0,0,0,0,0,0,0,0
2462,525,506,817.0,1,0,0,0,0,0,0,0,0,0
2463,538,503,817.0,1,0,0,0,0,0,0,0,0,0
2464,559,497,817.0,1,0,0,0,0,0,0,0,0,0
2465,584,489,817.0,1,0,0,0,0,0,0,0,0,0
2466,612,482,817.0,1,0,0,0,0,0,0,0,0,0
2467,629,478,817.0,1,0,0,0,0,0,0,0,0,0
2468,625,481,817.0,1,0,0,0,0,0,0,0,0,0
2469,601,490,817.0,1,0,0,0,0,0,0,0,0,0
2470,571,502,817.0,1,0,0,0,0,0,0,0,0,0
2471,540,513,817.0,1,0,0,0,0,0,0,0,0,0
2472,515,521,817.0,1,0,0,0,0,0,0,0,0,0
2473,501,522,817.0,1,0,0,0,0,0,0,0,0,0
2474,491,523,817.0,1,0,0,0,0,0,0,0,0,0
2475,483,522,817.0,1,0,0,0,0,0,0,0,0,0
2476,476,521,817.0,1,0,0,0,0,0,0,0,0,0
2477,473,519,817.0,1,0,0,0,0,0,0,0,0,0
2478,479,516,817.0,1,0,0,0,0,0,0,0,0,0
2479,485,514,817.0,1,0,0,0,0,0,0,0,0,0
2480,488,513,817.0,1,0,0,0,0,0,0,0,0,0
2481,488,513,817.0,1,0,0,0,0,0,0,0,0,0
2482,487,513,817.0,1,0,0,0,0,0,0,0,0,0
2483,486,512,817.0,1,0,0,0,0,0,0,0,0,0
2484,487,513,817.0,1,0,0,0,0,0,0,0,0,0
2485,487,512,817.0,1,0,0,0,0,0,0,0,0,0
2486,489,511,817.0,1,0,0,0,0,0,0,0,0,0
2487,491,511,817.0,1,0,0,0,0,0,0,0,0,0
2488,492,512,817.0,1,0,0,0,0,0,0,0,0,0
2489,492,513,817.0,1,0,0,0,0,0,0,0,0,0
2490,492,512,817.0,1,0,0,0,0,0,0,0,0,0
2491,492,512,817.0,1,0,0,0,0,0,0,0,0,0
2492,494,511,817.0,1,0,0,0,0,0,0,0,0,0
2493,496,511,817.0,1,0,0,0,0,0,0,0,0,0
2494,496,510,817.0,1,0,0,0,0,0,0,0,0,0
2495,495,510,817.0,1,0,0,0,0,0,0,0,0,0
2496,495,510,817.0,1,0,0,0,0,0,0,0,0,0
2497,496,510,817.0,1,0,0,0,0,0,0,0,0,0
2498,497,509,817.0,1,0,0,0,0,0,0,0,0,0
2499,497,510,817.0,1,0,0,0,0,0,0,0,0,0
2500,499,510,817.0,1,0,0,0,0,0,0,0,0,0
2501,501,510,817.0,1,0,0,0,0,0,0,0,0,0
2502,501,510,817.0,1,0,0,0,0,0,0,0,0,0
2503,501,510,817.0,1,0,0,0,0,0,0,0,0,0
2504,502,510,817.0,1,0,0,0,0,0,0,0,0,0
2505,503,510,817.0,1,0,0,0,0,0,0,0,0,0
2506,505,509,817.0,1,0,0,0,0,0,0,0,0,0
2507,505,509,817.0,1,0,0,0,0,0,0,0,0,0
2508,505,509,817.0,1,0,0,0,0,0,0,0,0,0
2509,507,510,817.0,1,0,0,0,0,0,0,0,0,0
2510,508,509,817.0,1,0,0,0,0,0,0,0,0,0
2511,508,509,817.0,1,0,0,0,0,0,0,0,0,0
2512,508,508,817.0,1,0,0,0,0,0,0,0,0,0
2513,508,508,817.0,1,0,0,0,0,0,0,0,0,0
2514,508,507,817.0,1,0,0,0,0,0,0,0,0,0
2515,509,507,817.0,1,0,0,0,0,0,0,0,0,0
2516,509,506,817.0,1,0,0,0,0,0,0,0,0,0
2517,509,508,817.0,1,0,0,0,0,0,0,0,0,0
2518,511,507,817.0,1,0,0,0,0,0,0,0,0,0
2519,512,507,817.0,1,0,0,0,0,0,0,0,0,0
2520,512,507,817.0,1,0,0,0,0,0,0,0,0,0
2521,512,507,817.0,1,0,0,0,0,0,0,0,0,0
2522,511,507,817.0,1,0,0,0,0,0,0,0,0,0
2523,511,507,817.0,1,0,0,0,0,0,0,0,0,0
2524,512,506,817.0,1,0,0,0,0,0,0,0,0,0
2525,513,506,817.0,1,0,0,0,0,0,0,0,0,0
2526,513,507,817.0,1,0,0,0,0,0,0,0,0,0
2527,512,507,817.0,1,0,0,0,0,0,0,0,0,0
2528,512,507,817.0,1,0,0,0,0,0,0,0,0,0
2529,513,507,817.0,1,0,0,0,0,0,0,0,0,0
2530,512,507,817.0,1,0,0,0,0,0,0,0,0,0
2531,512,507,817.0,1,0,0,0,0,0,0,0,0,0
2532,511,507,817.0,1,0,0,0,0,0,0,0,0,0
2533,512,507,817.0,1,0,0,0,0,0,0,0,0,0
2534,513,506,817.0,1,0,0,0,0,0,0,0,0,0
2535,514,506,817.0,1,0,0,0,0,0,0,0,0,0
2536,513,507,817.0,1,0,0,0,0,0,0,0,0,0
2537,513,507,817.0,1,0,0,0,0,0,0,0,0,0
2538,513,507,817.0,1,0,0,0,0,0,0,0,0,0
2539,512,507,817.0,1,0,0,0,0,0,0,0,0,0
2540,511,507,817.0,1,0,0,0,0,0,0,0,0,0
2541,512,508,817.0,1,0,0,0,0,0,0,0,0,0
2542,511,507,817.0,1,0,0,0,0,0,0,0,0,0
2543,511,508,817.0,1,0,0,0,0,0,0,0,0,0
2544,511,508,817.0,1,0,0,0,0,0,0,0,0,0
2545,510,508,817.0,1,0,0,0,0,0,0,0,0,0
2546,511,509,817.0,1,0,0,0,0,0,0,0,0,0
2547,512,510,817.0,1,0,0,0,0,0,0,0,0,0
2548,512,510,817.0,1,0,0,0,0,0,0,0,0,0
2549,509,511,817.0,1,0,0,0,0,0,0,0,0,0
2550,507,511,817.0,1,0,0,0,0,0,0,0,0,0
2551,506,512,817.0,1,0,0,0,0,0,0,0,0,0
2552,507,513,817.0,1,0,0,0,0,0,0,0,0,0
2553,506,513,817.0,1,0,0,0,0,0,0,0,0,0
2554,503,513,817.0,1,0,0,0,0,0,0,0,0,0
2555,502,515,817.0,1,0,0,0,0,0,0,0,0,0
2556,502,515,817.0,1,0,0,0,0,0,0,0,0,0
2557,501,515,817.0,1,0,0,0,0,0,0,0,0,0
2558,499,516,817.0,1,0,0,0,0,0,0,0,0,0
2559,500,516,817.0,1,0,0,0,0,0,0,0,0,0
2560,500,516,817.0,1,0,0,0,0,0,0,0,0,0
2561,498,517,817.0,1,0,0,0,0,0,0,0,0,0
2562,498,517,817.0,1,0,0,0,0,0,0,0,0,0
2563,498,518,817.0,1,0,0,0,0,0,0,0,0,0
2564,497,517,817.0,1,0,0,0,0,0,0,0,0,0
2565,497,517,817.0,1,0,0,0,0,0,0,0,0,0
2566,497,515,817.0,1,0,0,0,0,0,0,0,0,0
2567,497,517,817.0,1,0,0,0,0,0,0,0,0,0
2568,499,517,817.0,1,0,0,0,0,0,0,0,0,0
2569,500,516,817.0,1,0,0,0,0,0,0,0,0,0
2570,499,516,817.0,1,0,0,0,0,0,0,0,0,0
2571,499,515,817.0,1,0,0,0,0,0,0,0,0,0
2572,500,515,817.0,1,0,0,0,0,0,0,0,0,0
2573,500,515,817.0,1,0,0,0,0,0,0,0,0,0
2574,501,515,817.0,1,0,0,0,0,0,0,0,0,0
2575,502,515,817.0,1,0,0,0,0,0,0,0,0,0
2576,503,514,817.0,1,0,0,0,0,0,0,0,0,0
2577,504,512,817.0,1,0,0,0,0,0,0,0,0,0
2578,503,512,817.0,1,0,0,0,0,0,0,0,0,0
2579,503,512,817.0,1,0,0,0,0,0,0,0,0,0
2580,505,512,817.0,1,0,0,0,0,0,0,0,0,0
2581,506,511,817.0,1,0,0,0,0,0,0,0,0,0
2582,507,511,817.0,1,0,0,0,0,0,0,0,0,0
2583,508,512,817.0,1,0,0,0,0,0,0,0,0,0
2584,507,512,817.0,1,0,0,0,0,0,0,0,0,0
2585,507,512,817.0,1,0,0,0,0,0,0,0,0,0
2586,507,511,817.0,1,0,0,0,0,0,0,0,0,0
2587,507,511,817.0,1,0,0,0,0,0,0,0,0,0
2588,507,511,817.0,1,0,0,0,0,0,0,0,0,0
2589,507,511,817.0,1,0,0,0,0,0,0,0,0,0
2590,508,511,817.0,1,0,0,0,0,0,0,0,0,0
2591,509,510,817.0,1,0,0,0,0,0,0,0,0,0
2592,509,511,817.0,1,0,0,0,0,0,0,0,0,0
2593,508,511,817.0,1,0,0,0,0,0,0,0,0,0
2594,508,511,817.0,1,0,0,0,0,0,0,0,0,0
2595,509,510,817.0,1,0,0,0,0,0,0,0,0,0
2596,510,510,817.0,1,0,0,0,0,0,0,0,0,0
2597,510,510,817.0,1,0,0,0,0,0,0,0,0,0
2598,509,510,817.0,1,0,0,0,0,0,0,0,0,0
2599,507,511,817.0,1,0,0,0,0,0,0,0,0,0
2600,508,510,817.0,1,0,0,0,0,0,0,0,0,0
2601,508,510,817.0,1,0,0,0,0,0,0,0,0,0
2602,508,510,817.0,1,0,0,0,0,0,0,0,0,0
2603,508,510,817.0,1,0,0,0,0,0,0,0,0,0
2604,508,510,817.0,1,0,0,0,0,0,0,0,0,0
2605,510,510,817.0,1,0,0,0,0,0,0,0,0,0
2606,509,511,817.0,1,0,0,0,0,0,0,0,0,0
2607,508,511,817.0,1,0,0,0,0,0,0,0,0,0
2608,509,510,817.0,1,0,0,0,0,0,0,0,0,0
2609,510,511,817.0,1,0,0,0,0,0,0,0,0,0
2610,510,511,817.0,1,0,0,0,0,0,0,0,0,0
2611,509,511,817.0,1,0,0,0,0,0,0,0,0,0
2612,508,511,817.0,1,0,0,0,0,0,0,0,0,0
2613,507,510,817.0,1,0,0,0,0,0,0,0,0,0
2614,507,511,817.0,1,0,0,0,0,0,0,0,0,0
2615,507,511,817.0,1,0,0,0,0,0,0,0,0,0
2616,507,511,817.0,1,0,0,0,0,0,0,0,0,0
2617,507,511,817.0,1,0,0,0,0,0,0,0,0,0
2618,507,512,817.0,1,0,0,0,0,0,0,0,0,0
2619,508,511,817.0,1,0,0,0,0,0,0,0,0,0
2620,507,511,817.0,1,0,0,0,0,0,0,0,0,0
2621,506,510,817.0,1,0,0,0,0,0,0,0,0,0
2622,507,510,817.0,1,0,0,0,0,0,0,0,0,0
2623,508,509,817.0,1,0,0,0,0,0,0,0,0,0
2624,506,510,817.0,1,0,0,0,0,0,0,0,0,0
2625,505,511,817.0,1,0,0,0,0,0,0,0,0,0
2626,505,511,817.0,1,0,0,0,0,0,0,0,0,0
2627,506,510,817.0,1,0,0,0,0,0,0,0,0,0
2628,506,510,817.0,1,0,0,0,0,0,0,0,0,0
2629,507,511,817.0,1,0,0,0,0,0,0,0,0,0
2630,508,511,817.0,1,0,0,0,0,0,0,0,0,0
2631,508,511,817.0,1,0,0,0,0,0,0,0,0,0
2632,509,511,817.0,1,0,0,0,0,0,0,0,0,0
2633,507,511,817.0,1,0,0,0,0,0,0,0,0,0
2634,506,511,817.0,1,0,0,0,0,0,0,0,0,0
2635,506,510,817.0,1,0,0,0,0,0,0,0,0,0
2636,508,510,817.0,1,0,0,0,0,0,0,0,0,0
2637,508,511,817.0,1,0,0,0,0,0,0,0,0,0
2638,508,510,817.0,1,0,0,0,0,0,0,0,0,0
2639,509,510,817.0,1,0,0,0,0,0,0,0,0,0
2640,509,510,817.0,1,0,0,0,0,0,0,0,0,0
2641,509,510,817.0,1,0,0,0,0,0,0,0,0,0
2642,510,510,817.0,1,0,0,0,0,0,0,0,0,0
2643,508,510,817.0,1,0,0,0,0,0,0,0,0,0
2644,507,510,817.0,1,0,0,0,0,0,0,0,0,0
2645,508,510,817.0,1,0,0,0,0,0,0,0,0,0
2646,509,511,817.0,1,0,0,0,0,0,0,0,0,0
2647,507,510,817.0,1,0,0,0,0,0,0,0,0,0
2648,506,510,817.0,1,0,0,0,0,0,0,0,0,0
2649,507,510,817.0,1,0,0,0,0,0,0,0,0,0
2650,508,510,817.0,1,0,0,0,0,0,0,0,0,0
2651,506,510,817.0,1,0,0,0,0,0,0,0,0,0
2652,506,510,817.0,1,0,0,0,0,0,0,0,0,0
2653,506,509,817.0,1,0,0,0,0,0,0,0,0,0
2654,509,509,817.0,1,0,0,0,0,0,0,0,0,0
2655,508,509,817.0,1,0,0,0,0,0,0,0,0,0
2656,511,508,817.0,1,0,0,0,0,0,0,0,0,0
2657,515,507,817.0,1,0,0,0,0,0,0,0,0,0
2658,517,507,817.0,1,0,0,0,0,0,0,0,0,0
2659,518,508,817.0,1,0,0,0,0,0,0,0,0,0
2660,515,508,817.0,1,0,0,0,0,0,0,0,0,0
2661,513,508,817.0,1,0,0,0,0,0,0,0,0,0
2662,512,508,817.0,1,0,0,0,0,0,0,0,0,0
2663,513,508,817.0,1,0,0,0,0,0,0,0,0,0
2664,513,507,817.0,1,0,0,0,0,0,0,0,0,0
2665,512,508,817.0,1,0,0,0,0,0,0,0,0,0
2666,509,508,817.0,1,0,0,0,0,0,0,0,0,0
2667,508,509,817.0,1,0,0,0,0,0,0,0,0,0
2668,508,509,817.0,1,0,0,0,0,0,0,0,0,0
2669,507,510,817.0,1,0,0,0,0,0,0,0,0,0
2670,506,511,818.0,1,0,0,0,0,0,0,0,0,0
2671,506,511,818.0,1,0,0,0,0,0,0,0,0,0
2672,507,511,817.0,1,0,0,0,0,0,0,0,0,0
2673,506,511,817.0,1,0,0,0,0,0,0,0,0,0
2674,505,511,817.0,1,0,0,0,0,0,0,0,0,0
2675,505,511,817.0,1,0,0,0,0,0,0,0,0,0
2676,506,511,817.0,1,0,0,0,0,0,0,0,0,0
2677,505,510,817.0,1,0,0,0,0,0,0,0,0,0
2678,505,511,818.0,1,0,0,0,0,0,0,0,0,0
2679,506,511,817.0,1,0,0,0,0,0,0,0,0,0
2680,508,511,818.0,1,0,0,0,0,0,0,0,0,0
2681,510,510,817.0,1,0,0,0,0,0,0,0,0,0
2682,510,510,817.0,1,0,0,0,0,0,0,0,0,0
2683,515,509,818.0,1,0,0,0,0,0,0,0,0,0
2684,524,507,818.0,1,0,0,0,0,0,0,0,0,0
2685,536,505,817.0,1,0,0,0,0,0,0,0,0,0
2686,555,500,818.0,1,0,0,0,0,0,0,0,0,0
2687,581,494,817.0,1,0,0,0,0,0,0,0,0,0
2688,608,487,818.0,1,0,0,0,0,0,0,0,0,0
2689,627,482,818.0,1,0,0,0,0,0,0,0,0,0
2690,625,483,818.0,1,0,0,0,0,0,0,0,0,0
2691,604,490,818.0,1,0,0,0,0,0,0,0,0,0
2692,573,500,818.0,1,0,0,0,0,0,0,0,0,0
2693,540,510,818.0,1,0,0,0,0,0,0,0,0,0
2694,512,517,818.0,1,0,0,0,0,0,0,0,0,0
2695,497,521,818.0,1,0,0,0,0,0,0,0,0,0
2696,488,523,818.0,1,0,0,0,0,0,0,0,0,0
2697,480,523,818.0,1,0,0,0,0,0,0,0,0,0
2698,475,521,818.0,1,0,0,0,0,0,0,0,0,0
2699,472,519,818.0,1,0,0,0,0,0,0,0,0,0
2700,476,516,817.0,1,0,0,0,0,0,0,0,0,0
2701,480,515,818.0,1,0,0,0,0,0,0,0,0,0
2702,482,514,818.0,1,0,0,0,0,0,0,0,0,0
2703,484,513,817.0,1,0,0,0,0,0,0,0,0,0
2704,486,512,818.0,1,0,0,0,0,0,0,0,0,0
2705,487,512,817.0,1,0,0,0,0,0,0,0,0,0
2706,487,513,818.0,1,0,0,0,0,0,0,0,0,0
2707,487,512,817.0,1,0,0,0,0,0,0,0,0,0
2708,487,512,817.0,1,0,0,0,0,0,0,0,0,0
2709,487,512,817.0,1,0,0,0,0,0,0,0,0,0
2710,489,512,817.0,1,0,0,0,0,0,0,0,0,0
2711,491,512,817.0,1,0,0,0,0,0,0,0,0,0
2712,492,511,818.0,1,0,0,0,0,0,0,0,0,0
2713,492,512,818.0,1,0,0,0,0,0,0,0,0,0
2714,494,512,818.0,1,0,0,0,0,0,0,0,0,0
2715,495,512,817.0,1,0,0,0,0,0,0,0,0,0
2716,494,511,818.0,1,0,0,0,0,0,0,0,0,0
2717,495,512,818.0,1,0,0,0,0,0,0,0,0,0
2718,496,511,818.0,1,0,0,0,0,0,0,0,0,0
2719,498,510,817.0,1,0,0,0,0,0,0,0,0,0
2720,498,510,818.0,1,0,0,0,0,0,0,0,0,0
2721,499,510,817.0,1,0,0,0,0,0,0,0,0,0
2722,500,510,818.0,1,0,0,0,0,0,0,0,0,0
2723,501,510,817.0,1,0,0,0,0,0,0,0,0,0
2724,502,510,818.0,1,0,0,0,0,0,0,0,0,0
2725,502,509,818.0,1,0,0,0,0,0,0,0,0,0
2726,503,510,817.0,1,0,0,0,0,0,0,0,0,0
2727,504,510,818.0,1,0,0,0,0,0,0,0,0,0
2728,505,510,818.0,1,0,0,0,0,0,0,0,0,0
2729,506,511,818.0,1,0,0,0,0,0,0,0,0,0
2730,505,510,818.0,1,0,0,0,0,0,0,0,0,0
2731,505,510,817.0,1,0,0,0,0,0,0,0,0,0
2732,505,510,818.0,1,0,0,0,0,0,0,0,0,0
2733,506,510,817.0,1,0,0,0,0,0,0,0,0,0
2734,508,510,818.0,1,0,0,0,0,0,0,0,0,0
2735,509,510,817.0,1,0,0,0,0,0,0,0,0,0
2736,510,510,818.0,1,0,0,0,0,0,0,0,0,0
2737,509,509,818.0,1,0,0,0,0,0,0,0,0,0
2738,510,508,818.0,1,0,0,0,0,0,0,0,0,0
2739,510,508,818.0,1,0,0,0,0,0,0,0,0,0
2740,509,508,818.0,1,0,0,0,0,0,0,0,0,0
2741,509,508,818.0,1,0,0,0,0,0,0,0,0,0
2742,511,508,818.0,1,0,0,0,0,0,0,0,0,0
2743,511,507,818.0,1,0,0,0,0,0,0,0,0,0
2744,513,506,818.0,1,0,0,0,0,0,0,0,0,0
2745,513,507,817.0,1,0,0,0,0,0,0,0,0,0
2746,513,507,818.0,1,0,0,0,0,0,0,0,0,0
2747,514,507,818.0,1,0,0,0,0,0,0,0,0,0
2748,513,508,818.0,1,0,0,0,0,0,0,0,0,0
2749,513,507,817.0,1,0,0,0,0,0,0,0,0,0
2750,515,506,818.0,1,0,0,0,0,0,0,0,0,0
2751,515,507,818.0,1,0,0,0,0,0,0,0,0,0
2752,515,507,818.0,1,0,0,0,0,0,0,0,0,0
2753,515,508,817.0,1,0,0,0,0,0,0,0,0,0
2754,515,507,818.0,1,0,0,0,0,0,0,0,0,0
2755,515,508,817.0,1,0,0,0,0,0,0,0,0,0
2756,514,508,818.0,1,0,0,0,0,0,0,0,0,0
2757,515,507,818.0,1,0,0,0,0,0,0,0,0,0
2758,515,507,818.0,1,0,0,0,0,0,0,0,0,0
2759,515,507,818.0,1,0,0,0,0,0,0,0,0,0
2760,515,507,818.0,1,0,0,0,0,0,0,0,0,0
2761,514,507,818.0,1,0,0,0,0,0,0,0,0,0
2762,513,507,818.0,1,0,0,0,0,0,0,0,0,0
2763,512,507,818.0,1,0,0,0,0,0,0,0,0,0
2764,513,507,818.0,1,0,0,0,0,0,0,0,0,0
2765,512,508,818.0,1,0,0,0,0,0,0,0,0,0
2766,511,508,818.0,1,0,0,0,0,0,0,0,0,0
2767,511,509,818.0,1,0,0,0,0,0,0,0,0,0
2768,511,509,818.0,1,0,0,0,0,0,0,0,0,0
2769,512,509,818.0,1,0,0,0,0,0,0,0,0,0
2770,512,510,818.0,1,0,0,0,0,0,0,0,0,0
2771,512,510,818.0,1,0,0,0,0,0,0,0,0,0
2772,510,510,818.0,1,0,0,0,0,0,0,0,0,0
2773,508,511,818.0,1,0,0,0,0,0,0,0,0,0
2774,507,511,818.0,1,0,0,0,0,0,0,0,0,0
2775,507,512,818.0,1,0,0,0,0,0,0,0,0,0
2776,505,513,818.0,1,0,0,0,0,0,0,0,0,0
2777,504,514,818.0,1,0,0,0,0,0,0,0,0,0
2778,503,514,818.0,1,0,0,0,0,0,0,0,0,0
2779,502,516,818.0,1,0,0,0,0,0,0,0,0,0
2780,501,516,818.0,1,0,0,0,0,0,0,0,0,0
2781,502,515,817.0,1,0,0,0,0,0,0,0,0,0
2782,502,515,818.0,1,0,0,0,0,0,0,0,0,0
2783,501,515,817.0,1,0,0,0,0,0,0,0,0,0
2784,499,516,818.0,1,0,0,0,0,0,0,0,0,0
2785,499,516,818.0,1,0,0,0,0,0,0,0,0,0
2786,499,516,818.0,1,0,0,0,0,0,0,0,0,0
2787,499,515,818.0,1,0,0,0,0,0,0,0,0,0
2788,498,516,818.0,1,0,0,0,0,0,0,0,0,0
2789,497,516,818.0,1,0,0,0,0,0,0,0,0,0
2790,497,516,818.0,1,0,0,0,0,0,0,0,0,0
2791,497,515,818.0,1,0,0,0,0,0,0,0,0,0
2792,499,515,818.0,1,0,0,0,0,0,0,0,0,0
2793,500,515,817.0,1,0,0,0,0,0,0,0,0,0
2794,499,514,818.0,1,0,0,0,0,0,0,0,0,0
2795,500,513,817.0,1,0,0,0,0,0,0,0,0,0
2796,500,514,818.0,1,0,0,0,0,0,0,0,0,0
2797,501,515,818.0,1,0,0,0,0,0,0,0,0,0
2798,503,514,818.0,1,0,0,0,0,0,0,0,0,0
2799,503,513,818.0,1,0,0,0,0,0,0,0,0,0
2800,504,513,818.0,1,0,0,0,0,0,0,0,0,0
2801,503,513,818.0,1,0,0,0,0,0,0,0,0,0
2802,503,514,818.0,1,0,0,0,0,0,0,0,0,0
2803,503,514,817.0,1,0,0,0,0,0,0,0,0,0
2804,505,513,818.0,1,0,0,0,0,0,0,0,0,0
2805,504,513,818.0,1,0,0,0,0,0,0,0,0,0
2806,505,513,818.0,1,0,0,0,0,0,0,0,0,0
2807,506,513,818.0,1,0,0,0,0,0,0,0,0,0
2808,507,513,818.0,1,0,0,0,0,0,0,0,0,0
2809,508,512,818.0,1,0,0,0,0,0,0,0,0,0
2810,508,512,818.0,1,0,0,0,0,0,0,0,0,0
2811,508,511,818.0,1,0,0,0,0,0,0,0,0,0
2812,508,511,818.0,1,0,0,0,0,0,0,0,0,0
2813,509,511,818.0,1,0,0,0,0,0,0,0,0,0
2814,510,509,818.0,1,0,0,0,0,0,0,0,0,0
2815,509,510,817.0,1,0,0,0,0,0,0,0,0,0
2816,508,509,818.0,1,0,0,0,0,0,0,0,0,0
2817,509,509,818.0,1,0,0,0,0,0,0,0,0,0
2818,511,510,818.0,1,0,0,0,0,0,0,0,0,0
2819,512,510,818.0,1,0,0,0,0,0,0,0,0,0
2820,511,511,818.0,1,0,0,0,0,0,0,0,0,0
2821,511,510,818.0,1,0,0,0,0,0,0,0,0,0
2822,511,510,818.0,1,0,0,0,0,0,0,0,0,0
2823,510,510,818.0,1,0,0,0,0,0,0,0,0,0
2824,509,511,818.0,1,0,0,0,0,0,0,0,0,0
2825,508,512,818.0,1,0,0,0,0,0,0,0,0,0
2826,508,511,818.0,1,0,0,0,0,0,0,0,0,0
2827,508,511,817.0,1,0,0,0,0,0,0,0,0,0
2828,509,511,818.0,1,0,0,0,0,0,0,0,0,0
2829,510,512,818.0,1,0,0,0,0,0,0,0,0,0
2830,510,512,818.0,1,0,0,0,0,0,0,0,0,0
2831,508,512,818.0,1,0,0,0,0,0,0,0,0,0
2832,508,511,818.0,1,0,0,0,0,0,0,0,0,0
2833,509,510,818.0,1,0,0,0,0,0,0,0,0,0
2834,509,509,818.0,1,0,0,0,0,0,0,0,0,0
2835,506,510,818.0,1,0,0,0,0,0,0,0,0,0
2836,507,510,818.0,1,0,0,0,0,0,0,0,0,0
2837,509,510,818.0,1,0,0,0,0,0,0,0,0,0
2838,509,511,818.0,1,0,0,0,0,0,0,0,0,0
2839,508,511,818.0,1,0,0,0,0,0,0,0,0,0
2840,507,511,818.0,1,0,0,0,0,0,0,0,0,0
2841,507,511,818.0,1,0,0,0,0,0,0,0,0,0
2842,509,510,818.0,1,0,0,0,0,0,0,0,0,0
2843,510,511,818.0,1,0,0,0,0,0,0,0,0,0
2844,508,511,818.0,1,0,0,0,0,0,0,0,0,0
2845,509,511,818.0,1,0,0,0,0,0,0,0,0,0
2846,508,511,818.0,1,0,0,0,0,0,0,0,0,0
2847,505,511,818.0,1,0,0,0,0,0,0,0,0,0
2848,505,511,818.0,1,0,0,0,0,0,0,0,0,0
2849,506,510,818.0,1,0,0,0,0,0,0,0,0,0
2850,507,510,818.0,1,0,0,0,0,0,0,0,0,0
2851,509,509,818.0,1,0,0,0,0,0,0,0,0,0
2852,509,510,818.0,1,0,0,0,0,0,0,0,0,0
2853,507,510,818.0,1,0,0,0,0,0,0,0,0,0
2854,508,510,818.0,1,0,0,0,0,0,0,0,0,0
2855,508,510,818.0,1,0,0,0,0,0,0,0,0,0
2856,507,511,818.0,1,0,0,0,0,0,0,0,0,0
2857,508,511,818.0,1,0,0,0,0,0,0,0,0,0
2858,508,511,818.0,1,0,0,0,0,0,0,0,0,0
2859,510,511,818.0,1,0,0,0,0,0,0,0,0,0
2860,510,511,818.0,1,0,0,0,0,0,0,0,0,0
2861,507,511,818.0,1,0,0,0,0,0,0,0,0,0
2862,505,511,818.0,1,0,0,0,0,0,0,0,0,0
2863,506,509,818.0,1,0,0,0,0,0,0,0,0,0
2864,508,509,818.0,1,0,0,0,0,0,0,0,0,0
2865,509,509,818.0,1,0,0,0,0,0,0,0,0,0
2866,509,509,818.0,1,0,0,0,0,0,0,0,0,0
2867,508,510,818.0,1,0,0,0,0,0,0,0,0,0
2868,507,510,818.0,1,0,0,0,0,0,0,0,0,0
2869,507,510,818.0,1,0,0,0,0,0,0,0,0,0
2870,508,510,818.0,1,0,0,0,0,0,0,0,0,0
2871,508,510,818.0,1,0,0,0,0,0,0,0,0,0
2872,508,510,818.0,1,0,0,0,0,0,0,0,0,0
2873,508,510,818.0,1,0,0,0,0,0,0,0,0,0
2874,508,511,818.0,1,0,0,0,0,0,0,0,0,0
2875,508,510,818.0,1,0,0,0,0,0,0,0,0,0
2876,507,510,818.0,1,0,0,0,0,0,0,0,0,0
2877,507,509,818.0,1,0,0,0,0,0,0,0,0,0
2878,508,509,818.0,1,0,0,0,0,0,0,0,0,0
2879,508,508,818.0,1,0,0,0,0,0,0,0,0,0
2880,512,508,818.0,1,0,0,0,0,0,0,0,0,0
2881,516,507,818.0,1,0,0,0,0,0,0,0,0,0
2882,519,507,818.0,1,0,0,0,0,0,0,0,0,0
2883,519,506,818.0,1,0,0,0,0,0,0,0,0,0
2884,517,507,818.0,1,0,0,0,0,0,0,0,0,0
2885,515,508,818.0,1,0,0,0,0,0,0,0,0,0
2886,515,507,818.0,1,0,0,0,0,0,0,0,0,0
2887,516,507,818.0,1,0,0,0,0,0,0,0,0,0
2888,514,508,818.0,1,0,0,0,0,0,0,0,0,0
2889,512,508,818.0,1,0,0,0,0,0,0,0,0,0
2890,512,509,818.0,1,0,0,0,0,0,0,0,0,0
2891,510,510,818.0,1,0,0,0,0,0,0,0,0,0
2892,509,510,818.0,1,0,0,0,0,0,0,0,0,0
2893,508,511,818.0,1,0,0,0,0,0,0,0,0,0
2894,508,511,818.0,1,0,0,0,0,0,0,0,0,0
2895,508,511,818.0,1,0,0,0,0,0,0,0,0,0
2896,507,511,818.0,1,0,0,0,0,0,0,0,0,0
2897,507,511,818.0,1,0,0,0,0,0,0,0,0,0
2898,507,511,818.0,1,0,0,0,0,0,0,0,0,0
2899,507,511,818.0,1,0,0,0,0,0,0,0,0,0
2900,506,511,818.0,1,0,0,0,0,0,0,0,0,0
2901,506,511,818.0,1,0,0,0,0,0,0,0,0,0
2902,507,511,818.0,1,0,0,0,0,0,0,0,0,0
2903,507,511,818.0,1,0,0,0,0,0,0,0,0,0
2904,506,511,818.0,1,0,0,0,0,0,0,0,0,0
2905,506,511,818.0,1,0,0,0,0,0,0,0,0,0
2906,510,511,818.0,1,0,0,0,0,0,0,0,0,0
2907,517,511,818.0,1,0,0,0,0,0,0,0,0,0
2908,525,509,818.0,1,0,0,0,0,0,0,0,0,0
2909,537,506,818.0,1,0,0,0,0,0,0,0,0,0
2910,557,500,818.0,1,0,0,0,0,0,0,0,0,0
2911,582,494,818.0,1,0,0,0,0,0,0,0,0,0
2912,608,488,818.0,1,0,0,0,0,0,0,0,0,0
2913,628,483,818.0,1,0,0,0,0,0,0,0,0,0
2914,628,484,818.0,1,0,0,0,0,0,0,0,0,0
2915,607,490,818.0,1,0,0,0,0,0,0,0,0,0
2916,576,500,818.0,1,0,0,0,0,0,0,0,0,0
2917,541,510,818.0,1,0,0,0,0,0,0,0,0,0
2918,512,517,818.0,1,0,0,0,0,0,0,0,0,0
2919,498,520,818.0,1,0,0,0,0,0,0,0,0,0
2920,489,521,818.0,1,0,0,0,0,0,0,0,0,0
2921,482,522,818.0,1,0,0,0,0,0,0,0,0,0
2922,475,520,818.0,1,0,0,0,0,0,0,0,0,0
2923,472,517,818.0,1,0,0,0,0,0,0,0,0,0
2924,477,516,818.0,1,0,0,0,0,0,0,0,0,0
2925,482,515,818.0,1,0,0,0,0,0,0,0,0,0
2926,484,514,818.0,1,0,0,0,0,0,0,0,0,0
2927,487,513,818.0,1,0,0,0,0,0,0,0,0,0
2928,487,513,818.0,1,0,0,0,0,0,0,0,0,0
2929,487,513,818.0,1,0,0,0,0,0,0,0,0,0
2930,487,512,818.0,1,0,0,0,0,0,0,0,0,0
2931,486,511,818.0,1,0,0,0,0,0,0,0,0,0
2932,486,512,818.0,1,0,0,0,0,0,0,0,0,0
2933,489,512,818.0,1,0,0,0,0,0,0,0,0,0
2934,490,511,818.0,1,0,0,0,0,0,0,0,0,0
2935,490,511,818.0,1,0,0,0,0,0,0,0,0,0
2936,491,510,818.0,1,0,0,0,0,0,0,0,0,0
2937,494,510,818.0,1,0,0,0,0,0,0,0,0,0
2938,496,511,818.0,1,0,0,0,0,0,0,0,0,0
2939,496,510,818.0,1,0,0,0,0,0,0,0,0,0
2940,497,510,818.0,1,0,0,0,0,0,0,0,0,0
2941,499,511,818.0,1,0,0,0,0,0,0,0,0,0
2942,500,510,818.0,1,0,0,0,0,0,0,0,0,0
2943,500,511,818.0,1,0,0,0,0,0,0,0,0,0
2944,500,511,818.0,1,0,0,0,0,0,0,0,0,0
2945,499,510,818.0,1,0,0,0,0,0,0,0,0,0
2946,499,510,818.0,1,0,0,0,0,0,0,0,0,0
2947,500,510,818.0,1,0,0,0,0,0,0,0,0,0
2948,503,510,818.0,1,0,0,0,0,0,0,0,0,0
2949,503,509,818.0,1,0,0,0,0,0,0,0,0,0
