TimeStamp,ECG Data,EMG Data,EDA Data,lowGamma,highGamma,highAlpha,delta,highBeta,lowAlpha,lowBeta,theta,attention,meditation
0,504,502,747.0,1,0,0,0,0,0,0,0,0,0
1,506,507,746.0,1,0,0,0,0,0,0,0,0,0
2,509,504,746.0,1,0,0,0,0,0,0,0,0,0
3,510,497,746.0,1,0,0,0,0,0,0,0,0,0
4,511,496,746.0,1,0,0,0,0,0,0,0,0,0
5,511,506,746.0,1,0,0,0,0,0,0,0,0,0
6,512,511,746.0,1,0,0,0,0,0,0,0,0,0
7,512,516,746.0,1,0,0,0,0,0,0,0,0,0
8,513,517,746.0,1,0,0,0,0,0,0,0,0,0
9,514,509,746.0,1,0,0,0,0,0,0,0,0,0
10,515,505,745.0,1,0,0,0,0,0,0,0,0,0
11,515,510,745.0,1,0,0,0,0,0,0,0,0,0
12,515,509,745.0,1,0,0,0,0,0,0,0,0,0
13,517,503,745.0,1,0,0,0,0,0,0,0,0,0
14,518,499,745.0,1,0,0,0,0,0,0,0,0,0
15,520,498,745.0,1,0,0,0,0,0,0,0,0,0
16,521,509,745.0,1,0,0,0,0,0,0,0,0,0
17,522,505,745.0,1,0,0,0,0,0,0,0,0,0
18,524,494,745.0,1,0,0,0,0,0,0,0,0,0
19,527,504,744.0,1,0,0,0,0,0,0,0,0,0
20,529,508,744.0,1,0,0,0,0,0,0,0,0,0
21,530,507,744.0,1,0,0,0,0,0,0,0,0,0
22,531,503,744.0,1,0,0,0,0,0,0,0,0,0
23,534,495,744.0,1,0,0,0,0,0,0,0,0,0
24,536,502,744.0,1,0,0,0,0,0,0,0,0,0
25,537,507,744.0,1,0,0,0,0,0,0,0,0,0
26,538,504,744.0,1,0,0,0,0,0,0,0,0,0
27,540,501,744.0,1,0,0,0,0,0,0,0,0,0
28,541,500,744.0,1,0,0,0,0,0,0,0,0,0
29,542,497,744.0,1,0,0,0,0,0,0,0,0,0
30,543,498,743.0,1,0,0,0,0,0,0,0,0,0
31,543,502,743.0,1,0,0,0,0,0,0,0,0,0
32,542,503,743.0,1,0,0,0,0,0,0,0,0,0
33,541,500,743.0,1,0,0,0,0,0,0,0,0,0
34,539,487,743.0,1,0,0,0,0,0,0,0,0,0
35,537,508,743.0,1,0,0,0,0,0,0,0,0,0
36,536,513,743.0,1,0,0,0,0,0,0,0,0,0
37,533,506,743.0,1,0,0,0,0,0,0,0,0,0
38,529,510,743.0,1,0,0,0,0,0,0,0,0,0
39,524,507,743.0,1,0,0,0,0,0,0,0,0,0
40,518,502,743.0,1,0,0,0,0,0,0,0,0,0
41,511,514,743.0,1,0,0,0,0,0,0,0,0,0
42,504,517,743.0,1,0,0,0,0,0,0,0,0,0
43,499,515,743.0,1,0,0,0,0,0,0,0,0,0
44,493,516,743.0,1,0,0,0,0,0,0,0,0,0
45,488,506,742.0,1,0,0,0,0,0,0,0,0,0
46,483,517,742.0,1,0,0,0,0,0,0,0,0,0
47,480,521,742.0,1,0,0,0,0,0,0,0,0,0
48,478,513,742.0,1,0,0,0,0,0,0,0,0,0
49,475,514,742.0,1,0,0,0,0,0,0,0,0,0
50,473,516,742.0,1,0,0,0,0,0,0,0,0,0
51,472,521,742.0,1,0,0,0,0,0,0,0,0,0
52,472,512,742.0,1,0,0,0,0,0,0,0,0,0
53,471,522,742.0,1,0,0,0,0,0,0,0,0,0
54,472,525,742.0,1,0,0,0,0,0,0,0,0,0
55,472,520,742.0,1,0,0,0,0,0,0,0,0,0
56,473,510,742.0,1,0,0,0,0,0,0,0,0,0
57,474,519,742.0,1,0,0,0,0,0,0,0,0,0
58,475,508,742.0,1,0,0,0,0,0,0,0,0,0
59,476,519,742.0,1,0,0,0,0,0,0,0,0,0
60,478,525,742.0,1,0,0,0,0,0,0,0,0,0
61,479,515,742.0,1,0,0,0,0,0,0,0,0,0
62,480,519,742.0,1,0,0,0,0,0,0,0,0,0
63,481,522,742.0,1,0,0,0,0,0,0,0,0,0
64,482,522,742.0,1,0,0,0,0,0,0,0,0,0
65,484,521,742.0,1,0,0,0,0,0,0,0,0,0
66,485,511,742.0,1,0,0,0,0,0,0,0,0,0
67,487,508,742.0,1,0,0,0,0,0,0,0,0,0
68,488,520,742.0,1,0,0,0,0,0,0,0,0,0
69,489,514,742.0,1,0,0,0,0,0,0,0,0,0
70,491,522,742.0,1,0,0,0,0,0,0,0,0,0
71,492,517,742.0,1,0,0,0,0,0,0,0,0,0
72,493,511,742.0,1,0,0,0,0,0,0,0,0,0
73,494,508,741.0,1,0,0,0,0,0,0,0,0,0
74,495,507,741.0,1,0,0,0,0,0,0,0,0,0
75,496,514,741.0,1,0,0,0,0,0,0,0,0,0
76,496,513,741.0,1,0,0,0,0,0,0,0,0,0
77,497,514,741.0,1,0,0,0,0,0,0,0,0,0
78,499,515,741.0,1,0,0,0,0,0,0,0,0,0
79,500,512,741.0,1,0,0,0,0,0,0,0,0,0
80,501,505,741.0,1,0,0,0,0,0,0,0,0,0
81,501,513,741.0,1,0,0,0,0,0,0,0,0,0
82,501,518,741.0,1,0,0,0,0,0,0,0,0,0
83,502,517,741.0,1,0,0,0,0,0,0,0,0,0
84,503,512,741.0,1,0,0,0,0,0,0,0,0,0
85,503,511,741.0,1,0,0,0,0,0,0,0,0,0
86,503,513,741.0,1,0,0,0,0,0,0,0,0,0
87,503,510,741.0,1,0,0,0,0,0,0,0,0,0
88,504,510,741.0,1,0,0,0,0,0,0,0,0,0
89,504,508,741.0,1,0,0,0,0,0,0,0,0,0
90,505,515,741.0,1,0,0,0,0,0,0,0,0,0
91,505,511,741.0,1,0,0,0,0,0,0,0,0,0
92,505,517,741.0,1,0,0,0,0,0,0,0,0,0
93,505,514,741.0,1,0,0,0,0,0,0,0,0,0
94,505,514,741.0,1,0,0,0,0,0,0,0,0,0
95,505,522,741.0,1,0,0,0,0,0,0,0,0,0
96,505,518,741.0,1,0,0,0,0,0,0,0,0,0
97,505,515,741.0,1,0,0,0,0,0,0,0,0,0
98,506,510,741.0,1,0,0,0,0,0,0,0,0,0
99,506,505,741.0,1,0,0,0,0,0,0,0,0,0
100,506,513,741.0,1,0,0,0,0,0,0,0,0,0
101,506,513,741.0,1,0,0,0,0,0,0,0,0,0
102,507,506,741.0,1,0,0,0,0,0,0,0,0,0
103,507,515,741.0,1,0,0,0,0,0,0,0,0,0
104,507,519,741.0,1,0,0,0,0,0,0,0,0,0
105,507,520,741.0,1,0,0,0,0,0,0,0,0,0
106,507,515,741.0,1,0,0,0,0,0,0,0,0,0
107,507,506,741.0,1,0,0,0,0,0,0,0,0,0
108,507,516,741.0,1,0,0,0,0,0,0,0,0,0
109,507,515,741.0,1,0,0,0,0,0,0,0,0,0
110,507,512,741.0,1,0,0,0,0,0,0,0,0,0
111,507,511,741.0,1,0,0,0,0,0,0,0,0,0
112,508,510,741.0,1,0,0,0,0,0,0,0,0,0
113,508,515,741.0,1,0,0,0,0,0,0,0,0,0
114,508,517,741.0,1,0,0,0,0,0,0,0,0,0
115,509,515,741.0,1,0,0,0,0,0,0,0,0,0
116,509,506,741.0,1,0,0,0,0,0,0,0,0,0
117,509,509,741.0,1,0,0,0,0,0,0,0,0,0
118,509,519,741.0,1,0,0,0,0,0,0,0,0,0
119,509,513,741.0,1,0,0,0,0,0,0,0,0,0
120,510,504,741.0,1,0,0,0,0,0,0,0,0,0
121,510,514,741.0,1,0,0,0,0,0,0,0,0,0
122,510,517,741.0,1,0,0,0,0,0,0,0,0,0
123,511,518,741.0,1,0,0,0,0,0,0,0,0,0
124,511,518,741.0,1,0,0,0,0,0,0,0,0,0
125,511,512,741.0,1,0,0,0,0,0,0,0,0,0
126,511,504,741.0,1,0,0,0,0,0,0,0,0,0
127,512,512,741.0,1,0,0,0,0,0,0,0,0,0
128,514,516,741.0,1,0,0,0,0,0,0,0,0,0
129,515,514,741.0,1,0,0,0,0,0,0,0,0,0
130,516,511,741.0,1,0,0,0,0,0,0,0,0,0
131,518,509,741.0,1,0,0,0,0,0,0,0,0,0
132,519,510,741.0,1,0,0,0,0,0,0,0,0,0
133,520,506,741.0,1,0,0,0,0,0,0,0,0,0
134,522,514,741.0,1,0,0,0,0,0,0,0,0,0
135,524,510,741.0,1,0,0,0,0,0,0,0,0,0
136,525,511,741.0,1,0,0,0,0,0,0,0,0,0
137,526,509,741.0,1,0,0,0,0,0,0,0,0,0
138,526,500,741.0,1,0,0,0,0,0,0,0,0,0
139,524,499,741.0,1,0,0,0,0,0,0,0,0,0
140,522,508,741.0,1,0,0,0,0,0,0,0,0,0
141,520,514,741.0,1,0,0,0,0,0,0,0,0,0
142,519,506,741.0,1,0,0,0,0,0,0,0,0,0
143,518,494,741.0,1,0,0,0,0,0,0,0,0,0
144,516,508,741.0,1,0,0,0,0,0,0,0,0,0
145,514,513,741.0,1,0,0,0,0,0,0,0,0,0
146,512,508,741.0,1,0,0,0,0,0,0,0,0,0
147,510,510,741.0,1,0,0,0,0,0,0,0,0,0
148,508,511,741.0,1,0,0,0,0,0,0,0,0,0
149,506,515,741.0,1,0,0,0,0,0,0,0,0,0
150,506,517,741.0,1,0,0,0,0,0,0,0,0,0
151,506,516,741.0,1,0,0,0,0,0,0,0,0,0
152,506,516,741.0,1,0,0,0,0,0,0,0,0,0
153,505,515,741.0,1,0,0,0,0,0,0,0,0,0
154,506,514,741.0,1,0,0,0,0,0,0,0,0,0
155,506,512,741.0,1,0,0,0,0,0,0,0,0,0
156,507,506,741.0,1,0,0,0,0,0,0,0,0,0
157,507,512,741.0,1,0,0,0,0,0,0,0,0,0
158,507,516,741.0,1,0,0,0,0,0,0,0,0,0
159,507,515,741.0,1,0,0,0,0,0,0,0,0,0
160,507,511,741.0,1,0,0,0,0,0,0,0,0,0
161,508,504,741.0,1,0,0,0,0,0,0,0,0,0
162,509,509,741.0,1,0,0,0,0,0,0,0,0,0
163,508,513,741.0,1,0,0,0,0,0,0,0,0,0
164,506,518,741.0,1,0,0,0,0,0,0,0,0,0
165,503,510,741.0,1,0,0,0,0,0,0,0,0,0
166,497,516,741.0,1,0,0,0,0,0,0,0,0,0
167,493,519,741.0,1,0,0,0,0,0,0,0,0,0
168,499,513,741.0,1,0,0,0,0,0,0,0,0,0
169,511,505,741.0,1,0,0,0,0,0,0,0,0,0
170,523,496,741.0,1,0,0,0,0,0,0,0,0,0
171,545,506,741.0,1,0,0,0,0,0,0,0,0,0
172,583,502,741.0,1,0,0,0,0,0,0,0,0,0
173,631,491,741.0,1,0,0,0,0,0,0,0,0,0
174,682,484,741.0,1,0,0,0,0,0,0,0,0,0
175,702,489,741.0,1,0,0,0,0,0,0,0,0,0
176,671,500,741.0,1,0,0,0,0,0,0,0,0,0
177,628,507,741.0,1,0,0,0,0,0,0,0,0,0
178,584,516,741.0,1,0,0,0,0,0,0,0,0,0
179,553,518,741.0,1,0,0,0,0,0,0,0,0,0
180,527,520,741.0,1,0,0,0,0,0,0,0,0,0
181,503,516,741.0,1,0,0,0,0,0,0,0,0,0
182,486,518,741.0,1,0,0,0,0,0,0,0,0,0
183,477,517,741.0,1,0,0,0,0,0,0,0,0,0
184,472,517,741.0,1,0,0,0,0,0,0,0,0,0
185,470,508,741.0,1,0,0,0,0,0,0,0,0,0
186,470,514,741.0,1,0,0,0,0,0,0,0,0,0
187,472,511,741.0,1,0,0,0,0,0,0,0,0,0
188,474,512,741.0,1,0,0,0,0,0,0,0,0,0
189,476,521,741.0,1,0,0,0,0,0,0,0,0,0
190,477,517,741.0,1,0,0,0,0,0,0,0,0,0
191,478,514,741.0,1,0,0,0,0,0,0,0,0,0
192,479,505,741.0,1,0,0,0,0,0,0,0,0,0
193,483,517,741.0,1,0,0,0,0,0,0,0,0,0
194,484,519,741.0,1,0,0,0,0,0,0,0,0,0
195,485,520,741.0,1,0,0,0,0,0,0,0,0,0
196,487,513,741.0,1,0,0,0,0,0,0,0,0,0
197,488,510,741.0,1,0,0,0,0,0,0,0,0,0
198,490,515,741.0,1,0,0,0,0,0,0,0,0,0
199,492,513,741.0,1,0,0,0,0,0,0,0,0,0
200,494,508,741.0,1,0,0,0,0,0,0,0,0,0
201,497,516,741.0,1,0,0,0,0,0,0,0,0,0
202,498,514,741.0,1,0,0,0,0,0,0,0,0,0
203,498,508,741.0,1,0,0,0,0,0,0,0,0,0
204,499,509,741.0,1,0,0,0,0,0,0,0,0,0
205,497,509,741.0,1,0,0,0,0,0,0,0,0,0
206,495,512,741.0,1,0,0,0,0,0,0,0,0,0
207,495,506,741.0,1,0,0,0,0,0,0,0,0,0
208,498,506,741.0,1,0,0,0,0,0,0,0,0,0
209,501,501,741.0,1,0,0,0,0,0,0,0,0,0
210,502,507,741.0,1,0,0,0,0,0,0,0,0,0
211,503,507,741.0,1,0,0,0,0,0,0,0,0,0
212,505,509,741.0,1,0,0,0,0,0,0,0,0,0
213,507,508,741.0,1,0,0,0,0,0,0,0,0,0
214,510,497,741.0,1,0,0,0,0,0,0,0,0,0
215,510,500,741.0,1,0,0,0,0,0,0,0,0,0
216,510,515,741.0,1,0,0,0,0,0,0,0,0,0
217,512,516,741.0,1,0,0,0,0,0,0,0,0,0
218,512,506,741.0,1,0,0,0,0,0,0,0,0,0
219,512,500,741.0,1,0,0,0,0,0,0,0,0,0
220,512,513,741.0,1,0,0,0,0,0,0,0,0,0
221,511,515,741.0,1,0,0,0,0,0,0,0,0,0
222,512,509,741.0,1,0,0,0,0,0,0,0,0,0
223,514,502,741.0,1,0,0,0,0,0,0,0,0,0
224,516,510,741.0,1,0,0,0,0,0,0,0,0,0
225,518,512,741.0,1,0,0,0,0,0,0,0,0,0
226,520,508,741.0,1,0,0,0,0,0,0,0,0,0
227,520,507,741.0,1,0,0,0,0,0,0,0,0,0
228,521,509,741.0,1,0,0,0,0,0,0,0,0,0
229,522,510,741.0,1,0,0,0,0,0,0,0,0,0
230,522,505,741.0,1,0,0,0,0,0,0,0,0,0
231,523,492,741.0,1,0,0,0,0,0,0,0,0,0
232,525,500,741.0,1,0,0,0,0,0,0,0,0,0
233,526,511,741.0,1,0,0,0,0,0,0,0,0,0
234,528,508,741.0,1,0,0,0,0,0,0,0,0,0
235,530,503,741.0,1,0,0,0,0,0,0,0,0,0
236,531,507,741.0,1,0,0,0,0,0,0,0,0,0
237,534,503,741.0,1,0,0,0,0,0,0,0,0,0
238,536,504,741.0,1,0,0,0,0,0,0,0,0,0
239,538,511,741.0,1,0,0,0,0,0,0,0,0,0
240,538,506,741.0,1,0,0,0,0,0,0,0,0,0
241,539,505,741.0,1,0,0,0,0,0,0,0,0,0
242,541,502,741.0,1,0,0,0,0,0,0,0,0,0
243,542,500,741.0,1,0,0,0,0,0,0,0,0,0
244,543,497,741.0,1,0,0,0,0,0,0,0,0,0
245,543,506,741.0,1,0,0,0,0,0,0,0,0,0
246,544,509,741.0,1,0,0,0,0,0,0,0,0,0
247,544,505,741.0,1,0,0,0,0,0,0,0,0,0
248,543,498,741.0,1,0,0,0,0,0,0,0,0,0
249,543,499,741.0,1,0,0,0,0,0,0,0,0,0
250,543,502,741.0,1,0,0,0,0,0,0,0,0,0
251,540,503,741.0,1,0,0,0,0,0,0,0,0,0
252,537,501,741.0,1,0,0,0,0,0,0,0,0,0
253,532,505,741.0,1,0,0,0,0,0,0,0,0,0
254,527,506,741.0,1,0,0,0,0,0,0,0,0,0
255,521,510,741.0,1,0,0,0,0,0,0,0,0,0
256,515,516,741.0,1,0,0,0,0,0,0,0,0,0
257,508,517,741.0,1,0,0,0,0,0,0,0,0,0
258,503,517,741.0,1,0,0,0,0,0,0,0,0,0
259,499,517,741.0,1,0,0,0,0,0,0,0,0,0
260,494,519,741.0,1,0,0,0,0,0,0,0,0,0
261,491,519,741.0,1,0,0,0,0,0,0,0,0,0
262,487,515,741.0,1,0,0,0,0,0,0,0,0,0
263,484,513,741.0,1,0,0,0,0,0,0,0,0,0
264,483,512,741.0,1,0,0,0,0,0,0,0,0,0
265,481,519,741.0,1,0,0,0,0,0,0,0,0,0
266,480,522,741.0,1,0,0,0,0,0,0,0,0,0
267,480,518,741.0,1,0,0,0,0,0,0,0,0,0
268,479,518,741.0,1,0,0,0,0,0,0,0,0,0
269,478,526,741.0,1,0,0,0,0,0,0,0,0,0
270,478,525,741.0,1,0,0,0,0,0,0,0,0,0
271,478,522,741.0,1,0,0,0,0,0,0,0,0,0
272,479,523,741.0,1,0,0,0,0,0,0,0,0,0
273,481,521,741.0,1,0,0,0,0,0,0,0,0,0
274,483,520,741.0,1,0,0,0,0,0,0,0,0,0
275,485,518,741.0,1,0,0,0,0,0,0,0,0,0
276,486,516,741.0,1,0,0,0,0,0,0,0,0,0
277,487,518,741.0,1,0,0,0,0,0,0,0,0,0
278,486,519,741.0,1,0,0,0,0,0,0,0,0,0
279,487,515,741.0,1,0,0,0,0,0,0,0,0,0
280,488,520,741.0,1,0,0,0,0,0,0,0,0,0
281,490,520,741.0,1,0,0,0,0,0,0,0,0,0
282,492,515,741.0,1,0,0,0,0,0,0,0,0,0
283,493,515,741.0,1,0,0,0,0,0,0,0,0,0
284,495,519,741.0,1,0,0,0,0,0,0,0,0,0
285,496,518,741.0,1,0,0,0,0,0,0,0,0,0
286,497,518,741.0,1,0,0,0,0,0,0,0,0,0
287,497,515,741.0,1,0,0,0,0,0,0,0,0,0
288,498,515,741.0,1,0,0,0,0,0,0,0,0,0
289,500,518,741.0,1,0,0,0,0,0,0,0,0,0
290,501,519,741.0,1,0,0,0,0,0,0,0,0,0
291,501,517,741.0,1,0,0,0,0,0,0,0,0,0
292,502,517,741.0,1,0,0,0,0,0,0,0,0,0
293,503,512,741.0,1,0,0,0,0,0,0,0,0,0
294,504,512,741.0,1,0,0,0,0,0,0,0,0,0
295,505,517,741.0,1,0,0,0,0,0,0,0,0,0
296,506,517,741.0,1,0,0,0,0,0,0,0,0,0
297,505,515,741.0,1,0,0,0,0,0,0,0,0,0
298,505,513,741.0,1,0,0,0,0,0,0,0,0,0
299,505,513,741.0,1,0,0,0,0,0,0,0,0,0
300,506,513,741.0,1,0,0,0,0,0,0,0,0,0
301,506,510,741.0,1,0,0,0,0,0,0,0,0,0
302,507,511,741.0,1,0,0,0,0,0,0,0,0,0
303,508,512,741.0,1,0,0,0,0,0,0,0,0,0
304,510,505,741.0,1,0,0,0,0,0,0,0,0,0
305,511,516,741.0,1,0,0,0,0,0,0,0,0,0
306,509,521,741.0,1,0,0,0,0,0,0,0,0,0
307,509,514,741.0,1,0,0,0,0,0,0,0,0,0
308,509,507,741.0,1,0,0,0,0,0,0,0,0,0
309,510,509,741.0,1,0,0,0,0,0,0,0,0,0
310,509,508,742.0,1,0,0,0,0,0,0,0,0,0
311,508,505,741.0,1,0,0,0,0,0,0,0,0,0
312,507,510,741.0,1,0,0,0,0,0,0,0,0,0
313,507,511,741.0,1,0,0,0,0,0,0,0,0,0
314,507,511,741.0,1,0,0,0,0,0,0,0,0,0
315,506,509,741.0,1,0,0,0,0,0,0,0,0,0
316,506,513,741.0,1,0,0,0,0,0,0,0,0,0
317,508,508,741.0,1,0,0,0,0,0,0,0,0,0
318,509,513,741.0,1,0,0,0,0,0,0,0,0,0
319,508,514,741.0,1,0,0,0,0,0,0,0,0,0
320,509,513,741.0,1,0,0,0,0,0,0,0,0,0
321,510,512,741.0,1,0,0,0,0,0,0,0,0,0
322,510,512,741.0,1,0,0,0,0,0,0,0,0,0
323,509,509,741.0,1,0,0,0,0,0,0,0,0,0
324,509,513,741.0,1,0,0,0,0,0,0,0,0,0
325,509,517,741.0,1,0,0,0,0,0,0,0,0,0
326,509,519,741.0,1,0,0,0,0,0,0,0,0,0
327,510,515,741.0,1,0,0,0,0,0,0,0,0,0
328,509,506,741.0,1,0,0,0,0,0,0,0,0,0
329,508,514,741.0,1,0,0,0,0,0,0,0,0,0
330,509,522,741.0,1,0,0,0,0,0,0,0,0,0
331,511,514,741.0,1,0,0,0,0,0,0,0,0,0
332,510,511,741.0,1,0,0,0,0,0,0,0,0,0
333,511,505,741.0,1,0,0,0,0,0,0,0,0,0
334,510,500,741.0,1,0,0,0,0,0,0,0,0,0
335,510,515,741.0,1,0,0,0,0,0,0,0,0,0
336,511,522,741.0,1,0,0,0,0,0,0,0,0,0
337,511,513,741.0,1,0,0,0,0,0,0,0,0,0
338,509,518,742.0,1,0,0,0,0,0,0,0,0,0
339,510,513,741.0,1,0,0,0,0,0,0,0,0,0
340,511,507,742.0,1,0,0,0,0,0,0,0,0,0
341,511,509,742.0,1,0,0,0,0,0,0,0,0,0
342,511,512,741.0,1,0,0,0,0,0,0,0,0,0
343,511,516,741.0,1,0,0,0,0,0,0,0,0,0
344,511,514,741.0,1,0,0,0,0,0,0,0,0,0
345,511,511,741.0,1,0,0,0,0,0,0,0,0,0
346,511,507,741.0,1,0,0,0,0,0,0,0,0,0
347,511,507,741.0,1,0,0,0,0,0,0,0,0,0
348,509,507,741.0,1,0,0,0,0,0,0,0,0,0
349,510,504,741.0,1,0,0,0,0,0,0,0,0,0
350,511,510,742.0,1,0,0,0,0,0,0,0,0,0
351,511,509,742.0,1,0,0,0,0,0,0,0,0,0
352,510,511,741.0,1,0,0,0,0,0,0,0,0,0
353,510,515,742.0,1,0,0,0,0,0,0,0,0,0
354,510,515,741.0,1,0,0,0,0,0,0,0,0,0
355,512,510,741.0,1,0,0,0,0,0,0,0,0,0
356,513,512,742.0,1,0,0,0,0,0,0,0,0,0
357,511,509,741.0,1,0,0,0,0,0,0,0,0,0
358,510,512,741.0,1,0,0,0,0,0,0,0,0,0
359,510,518,742.0,1,0,0,0,0,0,0,0,0,0
360,512,516,741.0,1,0,0,0,0,0,0,0,0,0
361,513,511,742.0,1,0,0,0,0,0,0,0,0,0
362,514,505,742.0,1,0,0,0,0,0,0,0,0,0
363,516,495,742.0,1,0,0,0,0,0,0,0,0,0
364,517,502,741.0,1,0,0,0,0,0,0,0,0,0
365,517,513,741.0,1,0,0,0,0,0,0,0,0,0
366,519,510,742.0,1,0,0,0,0,0,0,0,0,0
367,522,512,742.0,1,0,0,0,0,0,0,0,0,0
368,524,509,741.0,1,0,0,0,0,0,0,0,0,0
369,526,502,741.0,1,0,0,0,0,0,0,0,0,0
370,528,505,741.0,1,0,0,0,0,0,0,0,0,0
371,527,512,742.0,1,0,0,0,0,0,0,0,0,0
372,523,511,741.0,1,0,0,0,0,0,0,0,0,0
373,521,507,742.0,1,0,0,0,0,0,0,0,0,0
374,519,507,742.0,1,0,0,0,0,0,0,0,0,0
375,518,504,742.0,1,0,0,0,0,0,0,0,0,0
376,517,505,742.0,1,0,0,0,0,0,0,0,0,0
377,516,507,741.0,1,0,0,0,0,0,0,0,0,0
378,512,506,742.0,1,0,0,0,0,0,0,0,0,0
379,509,506,742.0,1,0,0,0,0,0,0,0,0,0
380,506,508,742.0,1,0,0,0,0,0,0,0,0,0
381,505,502,742.0,1,0,0,0,0,0,0,0,0,0
382,505,502,742.0,1,0,0,0,0,0,0,0,0,0
383,506,507,741.0,1,0,0,0,0,0,0,0,0,0
384,507,515,742.0,1,0,0,0,0,0,0,0,0,0
385,506,518,742.0,1,0,0,0,0,0,0,0,0,0
386,503,517,742.0,1,0,0,0,0,0,0,0,0,0
387,503,516,742.0,1,0,0,0,0,0,0,0,0,0
388,504,514,742.0,1,0,0,0,0,0,0,0,0,0
389,504,509,742.0,1,0,0,0,0,0,0,0,0,0
390,505,500,742.0,1,0,0,0,0,0,0,0,0,0
391,505,516,742.0,1,0,0,0,0,0,0,0,0,0
392,505,518,742.0,1,0,0,0,0,0,0,0,0,0
393,506,515,742.0,1,0,0,0,0,0,0,0,0,0
394,507,512,742.0,1,0,0,0,0,0,0,0,0,0
395,507,508,742.0,1,0,0,0,0,0,0,0,0,0
396,505,513,742.0,1,0,0,0,0,0,0,0,0,0
397,503,517,742.0,1,0,0,0,0,0,0,0,0,0
398,499,513,742.0,1,0,0,0,0,0,0,0,0,0
399,494,501,741.0,1,0,0,0,0,0,0,0,0,0
400,496,505,742.0,1,0,0,0,0,0,0,0,0,0
401,506,516,742.0,1,0,0,0,0,0,0,0,0,0
402,517,503,742.0,1,0,0,0,0,0,0,0,0,0
403,530,498,742.0,1,0,0,0,0,0,0,0,0,0
404,554,504,741.0,1,0,0,0,0,0,0,0,0,0
405,590,498,742.0,1,0,0,0,0,0,0,0,0,0
406,636,491,742.0,1,0,0,0,0,0,0,0,0,0
407,677,484,742.0,1,0,0,0,0,0,0,0,0,0
408,673,480,742.0,1,0,0,0,0,0,0,0,0,0
409,643,488,742.0,1,0,0,0,0,0,0,0,0,0
410,604,502,742.0,1,0,0,0,0,0,0,0,0,0
411,566,512,742.0,1,0,0,0,0,0,0,0,0,0
412,538,515,742.0,1,0,0,0,0,0,0,0,0,0
413,512,518,742.0,1,0,0,0,0,0,0,0,0,0
414,492,514,742.0,1,0,0,0,0,0,0,0,0,0
415,482,514,742.0,1,0,0,0,0,0,0,0,0,0
416,475,522,742.0,1,0,0,0,0,0,0,0,0,0
417,470,521,742.0,1,0,0,0,0,0,0,0,0,0
418,469,518,742.0,1,0,0,0,0,0,0,0,0,0
419,470,514,742.0,1,0,0,0,0,0,0,0,0,0
420,473,509,742.0,1,0,0,0,0,0,0,0,0,0
421,475,510,742.0,1,0,0,0,0,0,0,0,0,0
422,474,508,742.0,1,0,0,0,0,0,0,0,0,0
423,472,514,742.0,1,0,0,0,0,0,0,0,0,0
424,474,516,742.0,1,0,0,0,0,0,0,0,0,0
425,476,513,742.0,1,0,0,0,0,0,0,0,0,0
426,478,508,742.0,1,0,0,0,0,0,0,0,0,0
427,480,509,742.0,1,0,0,0,0,0,0,0,0,0
428,481,512,742.0,1,0,0,0,0,0,0,0,0,0
429,483,510,742.0,1,0,0,0,0,0,0,0,0,0
430,484,503,742.0,1,0,0,0,0,0,0,0,0,0
431,485,512,742.0,1,0,0,0,0,0,0,0,0,0
432,487,515,742.0,1,0,0,0,0,0,0,0,0,0
433,490,517,742.0,1,0,0,0,0,0,0,0,0,0
434,491,514,742.0,1,0,0,0,0,0,0,0,0,0
435,492,511,742.0,1,0,0,0,0,0,0,0,0,0
436,493,511,742.0,1,0,0,0,0,0,0,0,0,0
437,495,510,742.0,1,0,0,0,0,0,0,0,0,0
438,496,509,742.0,1,0,0,0,0,0,0,0,0,0
439,496,508,742.0,1,0,0,0,0,0,0,0,0,0
440,497,508,742.0,1,0,0,0,0,0,0,0,0,0
441,498,509,742.0,1,0,0,0,0,0,0,0,0,0
442,498,508,742.0,1,0,0,0,0,0,0,0,0,0
443,501,503,742.0,1,0,0,0,0,0,0,0,0,0
444,502,509,742.0,1,0,0,0,0,0,0,0,0,0
445,501,513,742.0,1,0,0,0,0,0,0,0,0,0
446,501,509,742.0,1,0,0,0,0,0,0,0,0,0
447,503,500,742.0,1,0,0,0,0,0,0,0,0,0
448,504,497,742.0,1,0,0,0,0,0,0,0,0,0
449,505,515,742.0,1,0,0,0,0,0,0,0,0,0
450,506,517,742.0,1,0,0,0,0,0,0,0,0,0
451,506,515,742.0,1,0,0,0,0,0,0,0,0,0
452,507,511,742.0,1,0,0,0,0,0,0,0,0,0
453,508,510,742.0,1,0,0,0,0,0,0,0,0,0
454,509,510,742.0,1,0,0,0,0,0,0,0,0,0
455,509,508,742.0,1,0,0,0,0,0,0,0,0,0
456,510,507,742.0,1,0,0,0,0,0,0,0,0,0
457,511,506,742.0,1,0,0,0,0,0,0,0,0,0
458,513,508,742.0,1,0,0,0,0,0,0,0,0,0
459,514,505,742.0,1,0,0,0,0,0,0,0,0,0
460,515,499,742.0,1,0,0,0,0,0,0,0,0,0
461,516,504,742.0,1,0,0,0,0,0,0,0,0,0
462,518,506,742.0,1,0,0,0,0,0,0,0,0,0
463,519,507,742.0,1,0,0,0,0,0,0,0,0,0
464,521,507,742.0,1,0,0,0,0,0,0,0,0,0
465,521,509,742.0,1,0,0,0,0,0,0,0,0,0
466,521,504,742.0,1,0,0,0,0,0,0,0,0,0
467,522,499,742.0,1,0,0,0,0,0,0,0,0,0
468,525,503,742.0,1,0,0,0,0,0,0,0,0,0
469,527,508,742.0,1,0,0,0,0,0,0,0,0,0
470,528,510,742.0,1,0,0,0,0,0,0,0,0,0
471,530,506,742.0,1,0,0,0,0,0,0,0,0,0
472,532,504,742.0,1,0,0,0,0,0,0,0,0,0
473,534,495,742.0,1,0,0,0,0,0,0,0,0,0
474,535,500,742.0,1,0,0,0,0,0,0,0,0,0
475,536,505,742.0,1,0,0,0,0,0,0,0,0,0
476,537,503,742.0,1,0,0,0,0,0,0,0,0,0
477,537,495,742.0,1,0,0,0,0,0,0,0,0,0
478,537,499,742.0,1,0,0,0,0,0,0,0,0,0
479,538,504,742.0,1,0,0,0,0,0,0,0,0,0
480,539,509,742.0,1,0,0,0,0,0,0,0,0,0
481,539,507,742.0,1,0,0,0,0,0,0,0,0,0
482,540,503,742.0,1,0,0,0,0,0,0,0,0,0
483,539,503,742.0,1,0,0,0,0,0,0,0,0,0
484,537,502,742.0,1,0,0,0,0,0,0,0,0,0
485,532,505,742.0,1,0,0,0,0,0,0,0,0,0
486,528,508,742.0,1,0,0,0,0,0,0,0,0,0
487,524,508,742.0,1,0,0,0,0,0,0,0,0,0
488,520,502,742.0,1,0,0,0,0,0,0,0,0,0
489,514,500,742.0,1,0,0,0,0,0,0,0,0,0
490,507,511,742.0,1,0,0,0,0,0,0,0,0,0
491,500,513,742.0,1,0,0,0,0,0,0,0,0,0
492,496,518,742.0,1,0,0,0,0,0,0,0,0,0
493,492,514,742.0,1,0,0,0,0,0,0,0,0,0
494,488,509,742.0,1,0,0,0,0,0,0,0,0,0
495,486,514,742.0,1,0,0,0,0,0,0,0,0,0
496,483,515,742.0,1,0,0,0,0,0,0,0,0,0
497,481,519,742.0,1,0,0,0,0,0,0,0,0,0
498,479,523,742.0,1,0,0,0,0,0,0,0,0,0
499,477,516,742.0,1,0,0,0,0,0,0,0,0,0
500,476,507,742.0,1,0,0,0,0,0,0,0,0,0
501,476,521,742.0,1,0,0,0,0,0,0,0,0,0
502,476,524,742.0,1,0,0,0,0,0,0,0,0,0
503,477,518,742.0,1,0,0,0,0,0,0,0,0,0
504,477,510,742.0,1,0,0,0,0,0,0,0,0,0
505,477,522,742.0,1,0,0,0,0,0,0,0,0,0
506,478,526,742.0,1,0,0,0,0,0,0,0,0,0
507,480,519,742.0,1,0,0,0,0,0,0,0,0,0
508,482,521,742.0,1,0,0,0,0,0,0,0,0,0
509,483,520,742.0,1,0,0,0,0,0,0,0,0,0
510,483,519,742.0,1,0,0,0,0,0,0,0,0,0
511,483,508,742.0,1,0,0,0,0,0,0,0,0,0
512,485,515,742.0,1,0,0,0,0,0,0,0,0,0
513,485,520,742.0,1,0,0,0,0,0,0,0,0,0
514,486,516,742.0,1,0,0,0,0,0,0,0,0,0
515,488,509,742.0,1,0,0,0,0,0,0,0,0,0
516,489,515,742.0,1,0,0,0,0,0,0,0,0,0
517,490,516,742.0,1,0,0,0,0,0,0,0,0,0
518,491,522,742.0,1,0,0,0,0,0,0,0,0,0
519,491,513,742.0,1,0,0,0,0,0,0,0,0,0
520,492,514,742.0,1,0,0,0,0,0,0,0,0,0
521,494,520,742.0,1,0,0,0,0,0,0,0,0,0
522,494,515,742.0,1,0,0,0,0,0,0,0,0,0
523,494,511,742.0,1,0,0,0,0,0,0,0,0,0
524,493,510,742.0,1,0,0,0,0,0,0,0,0,0
525,495,512,742.0,1,0,0,0,0,0,0,0,0,0
526,497,512,742.0,1,0,0,0,0,0,0,0,0,0
527,498,509,742.0,1,0,0,0,0,0,0,0,0,0
528,499,517,742.0,1,0,0,0,0,0,0,0,0,0
529,499,518,742.0,1,0,0,0,0,0,0,0,0,0
530,500,514,742.0,1,0,0,0,0,0,0,0,0,0
531,501,508,742.0,1,0,0,0,0,0,0,0,0,0
532,501,508,742.0,1,0,0,0,0,0,0,0,0,0
533,502,514,742.0,1,0,0,0,0,0,0,0,0,0
534,503,504,742.0,1,0,0,0,0,0,0,0,0,0
535,503,507,742.0,1,0,0,0,0,0,0,0,0,0
536,502,517,742.0,1,0,0,0,0,0,0,0,0,0
537,503,512,742.0,1,0,0,0,0,0,0,0,0,0
538,504,510,742.0,1,0,0,0,0,0,0,0,0,0
539,504,505,742.0,1,0,0,0,0,0,0,0,0,0
540,504,511,742.0,1,0,0,0,0,0,0,0,0,0
541,504,510,742.0,1,0,0,0,0,0,0,0,0,0
542,505,507,742.0,1,0,0,0,0,0,0,0,0,0
543,505,511,742.0,1,0,0,0,0,0,0,0,0,0
544,505,513,742.0,1,0,0,0,0,0,0,0,0,0
545,505,515,742.0,1,0,0,0,0,0,0,0,0,0
546,504,521,742.0,1,0,0,0,0,0,0,0,0,0
547,505,514,742.0,1,0,0,0,0,0,0,0,0,0
548,505,514,742.0,1,0,0,0,0,0,0,0,0,0
549,504,502,742.0,1,0,0,0,0,0,0,0,0,0
550,503,499,742.0,1,0,0,0,0,0,0,0,0,0
551,503,519,742.0,1,0,0,0,0,0,0,0,0,0
552,505,514,742.0,1,0,0,0,0,0,0,0,0,0
553,505,509,742.0,1,0,0,0,0,0,0,0,0,0
554,504,507,742.0,1,0,0,0,0,0,0,0,0,0
555,504,509,742.0,1,0,0,0,0,0,0,0,0,0
556,504,510,742.0,1,0,0,0,0,0,0,0,0,0
557,505,511,742.0,1,0,0,0,0,0,0,0,0,0
558,505,496,742.0,1,0,0,0,0,0,0,0,0,0
559,505,499,742.0,1,0,0,0,0,0,0,0,0,0
560,505,518,742.0,1,0,0,0,0,0,0,0,0,0
561,505,518,742.0,1,0,0,0,0,0,0,0,0,0
562,505,512,742.0,1,0,0,0,0,0,0,0,0,0
563,505,510,742.0,1,0,0,0,0,0,0,0,0,0
564,505,514,742.0,1,0,0,0,0,0,0,0,0,0
565,506,515,742.0,1,0,0,0,0,0,0,0,0,0
566,506,508,742.0,1,0,0,0,0,0,0,0,0,0
567,506,498,742.0,1,0,0,0,0,0,0,0,0,0
568,506,505,742.0,1,0,0,0,0,0,0,0,0,0
569,506,502,742.0,1,0,0,0,0,0,0,0,0,0
570,506,490,742.0,1,0,0,0,0,0,0,0,0,0
571,505,520,742.0,1,0,0,0,0,0,0,0,0,0
572,506,517,742.0,1,0,0,0,0,0,0,0,0,0
573,506,512,742.0,1,0,0,0,0,0,0,0,0,0
574,507,511,742.0,1,0,0,0,0,0,0,0,0,0
575,507,516,742.0,1,0,0,0,0,0,0,0,0,0
576,507,512,742.0,1,0,0,0,0,0,0,0,0,0
577,507,506,742.0,1,0,0,0,0,0,0,0,0,0
578,508,511,742.0,1,0,0,0,0,0,0,0,0,0
579,509,511,742.0,1,0,0,0,0,0,0,0,0,0
580,508,511,742.0,1,0,0,0,0,0,0,0,0,0
581,508,510,742.0,1,0,0,0,0,0,0,0,0,0
582,506,504,742.0,1,0,0,0,0,0,0,0,0,0
583,506,513,742.0,1,0,0,0,0,0,0,0,0,0
584,505,512,742.0,1,0,0,0,0,0,0,0,0,0
585,507,506,742.0,1,0,0,0,0,0,0,0,0,0
586,508,490,742.0,1,0,0,0,0,0,0,0,0,0
587,508,511,742.0,1,0,0,0,0,0,0,0,0,0
588,507,519,742.0,1,0,0,0,0,0,0,0,0,0
589,506,508,742.0,1,0,0,0,0,0,0,0,0,0
590,506,505,742.0,1,0,0,0,0,0,0,0,0,0
591,506,513,742.0,1,0,0,0,0,0,0,0,0,0
592,507,503,742.0,1,0,0,0,0,0,0,0,0,0
593,508,513,742.0,1,0,0,0,0,0,0,0,0,0
594,507,515,742.0,1,0,0,0,0,0,0,0,0,0
595,507,508,742.0,1,0,0,0,0,0,0,0,0,0
596,506,501,742.0,1,0,0,0,0,0,0,0,0,0
597,507,498,742.0,1,0,0,0,0,0,0,0,0,0
598,507,513,742.0,1,0,0,0,0,0,0,0,0,0
599,507,512,742.0,1,0,0,0,0,0,0,0,0,0
600,508,506,742.0,1,0,0,0,0,0,0,0,0,0
601,507,509,742.0,1,0,0,0,0,0,0,0,0,0
602,507,511,742.0,1,0,0,0,0,0,0,0,0,0
603,507,504,742.0,1,0,0,0,0,0,0,0,0,0
604,507,508,742.0,1,0,0,0,0,0,0,0,0,0
605,508,515,742.0,1,0,0,0,0,0,0,0,0,0
606,508,514,742.0,1,0,0,0,0,0,0,0,0,0
607,509,508,742.0,1,0,0,0,0,0,0,0,0,0
608,511,504,742.0,1,0,0,0,0,0,0,0,0,0
609,514,496,742.0,1,0,0,0,0,0,0,0,0,0
610,515,496,742.0,1,0,0,0,0,0,0,0,0,0
611,514,511,742.0,1,0,0,0,0,0,0,0,0,0
612,514,514,742.0,1,0,0,0,0,0,0,0,0,0
613,516,505,742.0,1,0,0,0,0,0,0,0,0,0
614,519,502,742.0,1,0,0,0,0,0,0,0,0,0
615,522,500,742.0,1,0,0,0,0,0,0,0,0,0
616,523,502,742.0,1,0,0,0,0,0,0,0,0,0
617,522,507,742.0,1,0,0,0,0,0,0,0,0,0
618,520,505,742.0,1,0,0,0,0,0,0,0,0,0
619,518,490,742.0,1,0,0,0,0,0,0,0,0,0
620,516,506,742.0,1,0,0,0,0,0,0,0,0,0
621,514,509,742.0,1,0,0,0,0,0,0,0,0,0
622,514,507,742.0,1,0,0,0,0,0,0,0,0,0
623,512,509,742.0,1,0,0,0,0,0,0,0,0,0
624,509,510,742.0,1,0,0,0,0,0,0,0,0,0
625,506,493,742.0,1,0,0,0,0,0,0,0,0,0
626,503,509,742.0,1,0,0,0,0,0,0,0,0,0
627,502,515,742.0,1,0,0,0,0,0,0,0,0,0
628,501,515,742.0,1,0,0,0,0,0,0,0,0,0
629,502,512,742.0,1,0,0,0,0,0,0,0,0,0
630,503,508,742.0,1,0,0,0,0,0,0,0,0,0
631,502,507,742.0,1,0,0,0,0,0,0,0,0,0
632,502,495,742.0,1,0,0,0,0,0,0,0,0,0
633,502,503,742.0,1,0,0,0,0,0,0,0,0,0
634,501,519,742.0,1,0,0,0,0,0,0,0,0,0
635,502,513,742.0,1,0,0,0,0,0,0,0,0,0
636,503,501,742.0,1,0,0,0,0,0,0,0,0,0
637,503,511,742.0,1,0,0,0,0,0,0,0,0,0
638,503,517,742.0,1,0,0,0,0,0,0,0,0,0
639,503,512,742.0,1,0,0,0,0,0,0,0,0,0
640,503,507,742.0,1,0,0,0,0,0,0,0,0,0
641,504,510,742.0,1,0,0,0,0,0,0,0,0,0
642,503,510,742.0,1,0,0,0,0,0,0,0,0,0
643,501,507,742.0,1,0,0,0,0,0,0,0,0,0
644,496,512,742.0,1,0,0,0,0,0,0,0,0,0
645,491,515,742.0,1,0,0,0,0,0,0,0,0,0
646,494,505,742.0,1,0,0,0,0,0,0,0,0,0
647,504,500,742.0,1,0,0,0,0,0,0,0,0,0
648,515,510,742.0,1,0,0,0,0,0,0,0,0,0
649,531,504,742.0,1,0,0,0,0,0,0,0,0,0
650,562,496,742.0,1,0,0,0,0,0,0,0,0,0
651,602,495,742.0,1,0,0,0,0,0,0,0,0,0
652,652,489,742.0,1,0,0,0,0,0,0,0,0,0
653,690,487,742.0,1,0,0,0,0,0,0,0,0,0
654,675,490,742.0,1,0,0,0,0,0,0,0,0,0
655,638,489,742.0,1,0,0,0,0,0,0,0,0,0
656,595,498,742.0,1,0,0,0,0,0,0,0,0,0
657,561,495,742.0,1,0,0,0,0,0,0,0,0,0
658,533,518,742.0,1,0,0,0,0,0,0,0,0,0
659,507,520,743.0,1,0,0,0,0,0,0,0,0,0
660,487,515,742.0,1,0,0,0,0,0,0,0,0,0
661,477,521,742.0,1,0,0,0,0,0,0,0,0,0
662,472,518,742.0,1,0,0,0,0,0,0,0,0,0
663,468,514,742.0,1,0,0,0,0,0,0,0,0,0
664,468,511,742.0,1,0,0,0,0,0,0,0,0,0
665,469,516,742.0,1,0,0,0,0,0,0,0,0,0
666,471,515,742.0,1,0,0,0,0,0,0,0,0,0
667,473,508,742.0,1,0,0,0,0,0,0,0,0,0
668,474,509,742.0,1,0,0,0,0,0,0,0,0,0
669,474,516,742.0,1,0,0,0,0,0,0,0,0,0
670,475,517,742.0,1,0,0,0,0,0,0,0,0,0
671,476,509,743.0,1,0,0,0,0,0,0,0,0,0
672,477,504,742.0,1,0,0,0,0,0,0,0,0,0
673,479,510,742.0,1,0,0,0,0,0,0,0,0,0
674,481,518,742.0,1,0,0,0,0,0,0,0,0,0
675,483,517,742.0,1,0,0,0,0,0,0,0,0,0
676,486,507,742.0,1,0,0,0,0,0,0,0,0,0
677,488,506,742.0,1,0,0,0,0,0,0,0,0,0
678,488,513,742.0,1,0,0,0,0,0,0,0,0,0
679,489,516,743.0,1,0,0,0,0,0,0,0,0,0
680,491,504,742.0,1,0,0,0,0,0,0,0,0,0
681,493,509,742.0,1,0,0,0,0,0,0,0,0,0
682,495,514,742.0,1,0,0,0,0,0,0,0,0,0
683,495,517,742.0,1,0,0,0,0,0,0,0,0,0
684,496,511,742.0,1,0,0,0,0,0,0,0,0,0
685,497,515,742.0,1,0,0,0,0,0,0,0,0,0
686,498,517,742.0,1,0,0,0,0,0,0,0,0,0
687,499,514,742.0,1,0,0,0,0,0,0,0,0,0
688,500,510,742.0,1,0,0,0,0,0,0,0,0,0
689,501,509,742.0,1,0,0,0,0,0,0,0,0,0
690,502,504,742.0,1,0,0,0,0,0,0,0,0,0
691,503,514,742.0,1,0,0,0,0,0,0,0,0,0
692,504,516,742.0,1,0,0,0,0,0,0,0,0,0
693,505,515,743.0,1,0,0,0,0,0,0,0,0,0
694,506,507,742.0,1,0,0,0,0,0,0,0,0,0
695,506,513,742.0,1,0,0,0,0,0,0,0,0,0
696,508,515,742.0,1,0,0,0,0,0,0,0,0,0
697,509,509,742.0,1,0,0,0,0,0,0,0,0,0
698,509,508,742.0,1,0,0,0,0,0,0,0,0,0
699,510,508,742.0,1,0,0,0,0,0,0,0,0,0
700,511,505,742.0,1,0,0,0,0,0,0,0,0,0
701,512,508,742.0,1,0,0,0,0,0,0,0,0,0
702,513,511,743.0,1,0,0,0,0,0,0,0,0,0
703,515,512,742.0,1,0,0,0,0,0,0,0,0,0
704,516,509,742.0,1,0,0,0,0,0,0,0,0,0
705,516,505,742.0,1,0,0,0,0,0,0,0,0,0
706,518,501,742.0,1,0,0,0,0,0,0,0,0,0
707,518,500,742.0,1,0,0,0,0,0,0,0,0,0
708,519,513,742.0,1,0,0,0,0,0,0,0,0,0
709,520,510,742.0,1,0,0,0,0,0,0,0,0,0
710,522,507,742.0,1,0,0,0,0,0,0,0,0,0
711,523,511,742.0,1,0,0,0,0,0,0,0,0,0
712,524,506,742.0,1,0,0,0,0,0,0,0,0,0
713,527,513,743.0,1,0,0,0,0,0,0,0,0,0
714,529,507,742.0,1,0,0,0,0,0,0,0,0,0
715,531,505,742.0,1,0,0,0,0,0,0,0,0,0
716,532,512,743.0,1,0,0,0,0,0,0,0,0,0
717,534,506,743.0,1,0,0,0,0,0,0,0,0,0
718,536,507,742.0,1,0,0,0,0,0,0,0,0,0
719,538,503,743.0,1,0,0,0,0,0,0,0,0,0
720,540,500,743.0,1,0,0,0,0,0,0,0,0,0
721,540,506,743.0,1,0,0,0,0,0,0,0,0,0
722,541,504,743.0,1,0,0,0,0,0,0,0,0,0
723,542,494,743.0,1,0,0,0,0,0,0,0,0,0
724,543,496,743.0,1,0,0,0,0,0,0,0,0,0
725,543,508,743.0,1,0,0,0,0,0,0,0,0,0
726,543,506,743.0,1,0,0,0,0,0,0,0,0,0
727,544,508,743.0,1,0,0,0,0,0,0,0,0,0
728,543,509,743.0,1,0,0,0,0,0,0,0,0,0
729,542,505,743.0,1,0,0,0,0,0,0,0,0,0
730,540,497,742.0,1,0,0,0,0,0,0,0,0,0
731,537,497,743.0,1,0,0,0,0,0,0,0,0,0
732,533,514,743.0,1,0,0,0,0,0,0,0,0,0
733,529,515,743.0,1,0,0,0,0,0,0,0,0,0
734,523,515,743.0,1,0,0,0,0,0,0,0,0,0
735,517,514,742.0,1,0,0,0,0,0,0,0,0,0
736,511,513,743.0,1,0,0,0,0,0,0,0,0,0
737,505,513,743.0,1,0,0,0,0,0,0,0,0,0
738,499,511,743.0,1,0,0,0,0,0,0,0,0,0
739,493,517,743.0,1,0,0,0,0,0,0,0,0,0
740,488,519,743.0,1,0,0,0,0,0,0,0,0,0
741,485,524,743.0,1,0,0,0,0,0,0,0,0,0
742,482,522,743.0,1,0,0,0,0,0,0,0,0,0
743,479,518,743.0,1,0,0,0,0,0,0,0,0,0
744,478,509,743.0,1,0,0,0,0,0,0,0,0,0
745,476,509,743.0,1,0,0,0,0,0,0,0,0,0
746,475,528,742.0,1,0,0,0,0,0,0,0,0,0
747,474,528,743.0,1,0,0,0,0,0,0,0,0,0
748,474,524,743.0,1,0,0,0,0,0,0,0,0,0
749,475,518,743.0,1,0,0,0,0,0,0,0,0,0
750,475,516,743.0,1,0,0,0,0,0,0,0,0,0
751,476,520,743.0,1,0,0,0,0,0,0,0,0,0
752,477,524,743.0,1,0,0,0,0,0,0,0,0,0
753,479,522,743.0,1,0,0,0,0,0,0,0,0,0
754,480,515,742.0,1,0,0,0,0,0,0,0,0,0
755,481,524,742.0,1,0,0,0,0,0,0,0,0,0
756,481,522,743.0,1,0,0,0,0,0,0,0,0,0
757,483,517,743.0,1,0,0,0,0,0,0,0,0,0
758,484,521,743.0,1,0,0,0,0,0,0,0,0,0
759,486,515,743.0,1,0,0,0,0,0,0,0,0,0
760,487,520,743.0,1,0,0,0,0,0,0,0,0,0
761,487,522,743.0,1,0,0,0,0,0,0,0,0,0
762,488,518,743.0,1,0,0,0,0,0,0,0,0,0
763,490,515,743.0,1,0,0,0,0,0,0,0,0,0
764,491,515,743.0,1,0,0,0,0,0,0,0,0,0
765,493,515,743.0,1,0,0,0,0,0,0,0,0,0
766,494,516,743.0,1,0,0,0,0,0,0,0,0,0
767,495,518,743.0,1,0,0,0,0,0,0,0,0,0
768,495,519,743.0,1,0,0,0,0,0,0,0,0,0
769,496,512,743.0,1,0,0,0,0,0,0,0,0,0
770,498,514,743.0,1,0,0,0,0,0,0,0,0,0
771,499,517,743.0,1,0,0,0,0,0,0,0,0,0
772,500,520,743.0,1,0,0,0,0,0,0,0,0,0
773,501,513,743.0,1,0,0,0,0,0,0,0,0,0
774,502,512,743.0,1,0,0,0,0,0,0,0,0,0
775,502,513,743.0,1,0,0,0,0,0,0,0,0,0
776,503,513,743.0,1,0,0,0,0,0,0,0,0,0
777,504,514,743.0,1,0,0,0,0,0,0,0,0,0
778,505,516,743.0,1,0,0,0,0,0,0,0,0,0
779,505,513,743.0,1,0,0,0,0,0,0,0,0,0
780,506,507,743.0,1,0,0,0,0,0,0,0,0,0
781,506,508,743.0,1,0,0,0,0,0,0,0,0,0
782,507,518,743.0,1,0,0,0,0,0,0,0,0,0
783,508,515,743.0,1,0,0,0,0,0,0,0,0,0
784,508,515,743.0,1,0,0,0,0,0,0,0,0,0
785,508,511,743.0,1,0,0,0,0,0,0,0,0,0
786,508,505,743.0,1,0,0,0,0,0,0,0,0,0
787,508,515,743.0,1,0,0,0,0,0,0,0,0,0
788,508,522,743.0,1,0,0,0,0,0,0,0,0,0
789,508,518,743.0,1,0,0,0,0,0,0,0,0,0
790,508,510,743.0,1,0,0,0,0,0,0,0,0,0
791,508,511,743.0,1,0,0,0,0,0,0,0,0,0
792,508,517,743.0,1,0,0,0,0,0,0,0,0,0
793,508,517,743.0,1,0,0,0,0,0,0,0,0,0
794,509,509,743.0,1,0,0,0,0,0,0,0,0,0
795,509,500,743.0,1,0,0,0,0,0,0,0,0,0
796,509,509,743.0,1,0,0,0,0,0,0,0,0,0
797,509,518,743.0,1,0,0,0,0,0,0,0,0,0
798,509,520,743.0,1,0,0,0,0,0,0,0,0,0
799,509,516,743.0,1,0,0,0,0,0,0,0,0,0
800,509,512,743.0,1,0,0,0,0,0,0,0,0,0
801,510,510,743.0,1,0,0,0,0,0,0,0,0,0
802,510,507,743.0,1,0,0,0,0,0,0,0,0,0
803,509,507,743.0,1,0,0,0,0,0,0,0,0,0
804,510,498,743.0,1,0,0,0,0,0,0,0,0,0
805,510,510,743.0,1,0,0,0,0,0,0,0,0,0
806,510,515,743.0,1,0,0,0,0,0,0,0,0,0
807,510,519,743.0,1,0,0,0,0,0,0,0,0,0
808,510,511,743.0,1,0,0,0,0,0,0,0,0,0
809,510,512,743.0,1,0,0,0,0,0,0,0,0,0
810,511,518,743.0,1,0,0,0,0,0,0,0,0,0
811,511,512,743.0,1,0,0,0,0,0,0,0,0,0
812,510,513,743.0,1,0,0,0,0,0,0,0,0,0
813,511,506,743.0,1,0,0,0,0,0,0,0,0,0
814,511,507,743.0,1,0,0,0,0,0,0,0,0,0
815,511,512,743.0,1,0,0,0,0,0,0,0,0,0
816,510,515,743.0,1,0,0,0,0,0,0,0,0,0
817,511,515,743.0,1,0,0,0,0,0,0,0,0,0
818,510,510,743.0,1,0,0,0,0,0,0,0,0,0
819,510,513,743.0,1,0,0,0,0,0,0,0,0,0
820,510,514,743.0,1,0,0,0,0,0,0,0,0,0
821,510,507,743.0,1,0,0,0,0,0,0,0,0,0
822,511,506,743.0,1,0,0,0,0,0,0,0,0,0
823,511,512,743.0,1,0,0,0,0,0,0,0,0,0
824,511,509,743.0,1,0,0,0,0,0,0,0,0,0
825,511,505,743.0,1,0,0,0,0,0,0,0,0,0
826,511,515,743.0,1,0,0,0,0,0,0,0,0,0
827,511,514,743.0,1,0,0,0,0,0,0,0,0,0
828,511,510,743.0,1,0,0,0,0,0,0,0,0,0
829,511,501,743.0,1,0,0,0,0,0,0,0,0,0
830,511,510,743.0,1,0,0,0,0,0,0,0,0,0
831,511,520,743.0,1,0,0,0,0,0,0,0,0,0
832,512,517,743.0,1,0,0,0,0,0,0,0,0,0
833,512,513,743.0,1,0,0,0,0,0,0,0,0,0
834,512,510,743.0,1,0,0,0,0,0,0,0,0,0
835,513,507,743.0,1,0,0,0,0,0,0,0,0,0
836,513,507,743.0,1,0,0,0,0,0,0,0,0,0
837,514,506,743.0,1,0,0,0,0,0,0,0,0,0
838,516,511,743.0,1,0,0,0,0,0,0,0,0,0
839,518,508,743.0,1,0,0,0,0,0,0,0,0,0
840,519,505,743.0,1,0,0,0,0,0,0,0,0,0
841,520,500,743.0,1,0,0,0,0,0,0,0,0,0
842,521,504,743.0,1,0,0,0,0,0,0,0,0,0
843,522,511,743.0,1,0,0,0,0,0,0,0,0,0
844,524,509,743.0,1,0,0,0,0,0,0,0,0,0
845,526,508,743.0,1,0,0,0,0,0,0,0,0,0
846,527,495,743.0,1,0,0,0,0,0,0,0,0,0
847,526,483,743.0,1,0,0,0,0,0,0,0,0,0
848,524,517,743.0,1,0,0,0,0,0,0,0,0,0
849,522,517,743.0,1,0,0,0,0,0,0,0,0,0
850,519,510,743.0,1,0,0,0,0,0,0,0,0,0
851,518,507,743.0,1,0,0,0,0,0,0,0,0,0
852,517,511,743.0,1,0,0,0,0,0,0,0,0,0
853,515,513,743.0,1,0,0,0,0,0,0,0,0,0
854,513,508,743.0,1,0,0,0,0,0,0,0,0,0
855,511,512,743.0,1,0,0,0,0,0,0,0,0,0
856,508,514,743.0,1,0,0,0,0,0,0,0,0,0
857,507,509,743.0,1,0,0,0,0,0,0,0,0,0
858,506,514,743.0,1,0,0,0,0,0,0,0,0,0
859,506,515,743.0,1,0,0,0,0,0,0,0,0,0
860,505,513,743.0,1,0,0,0,0,0,0,0,0,0
861,505,514,743.0,1,0,0,0,0,0,0,0,0,0
862,505,514,743.0,1,0,0,0,0,0,0,0,0,0
863,506,511,743.0,1,0,0,0,0,0,0,0,0,0
864,506,508,743.0,1,0,0,0,0,0,0,0,0,0
865,506,511,743.0,1,0,0,0,0,0,0,0,0,0
866,507,505,743.0,1,0,0,0,0,0,0,0,0,0
867,507,515,743.0,1,0,0,0,0,0,0,0,0,0
868,508,517,743.0,1,0,0,0,0,0,0,0,0,0
869,508,513,743.0,1,0,0,0,0,0,0,0,0,0
870,508,516,743.0,1,0,0,0,0,0,0,0,0,0
871,508,513,743.0,1,0,0,0,0,0,0,0,0,0
872,507,509,743.0,1,0,0,0,0,0,0,0,0,0
873,506,501,743.0,1,0,0,0,0,0,0,0,0,0
874,503,496,743.0,1,0,0,0,0,0,0,0,0,0
875,497,519,743.0,1,0,0,0,0,0,0,0,0,0
876,495,521,743.0,1,0,0,0,0,0,0,0,0,0
877,502,510,743.0,1,0,0,0,0,0,0,0,0,0
878,513,507,743.0,1,0,0,0,0,0,0,0,0,0
879,524,509,743.0,1,0,0,0,0,0,0,0,0,0
880,548,503,743.0,1,0,0,0,0,0,0,0,0,0
881,587,498,743.0,1,0,0,0,0,0,0,0,0,0
882,635,490,743.0,1,0,0,0,0,0,0,0,0,0
883,685,483,743.0,1,0,0,0,0,0,0,0,0,0
884,699,488,743.0,1,0,0,0,0,0,0,0,0,0
885,670,486,743.0,1,0,0,0,0,0,0,0,0,0
886,627,491,743.0,1,0,0,0,0,0,0,0,0,0
887,581,504,743.0,1,0,0,0,0,0,0,0,0,0
888,547,522,743.0,1,0,0,0,0,0,0,0,0,0
889,518,524,743.0,1,0,0,0,0,0,0,0,0,0
890,494,521,743.0,1,0,0,0,0,0,0,0,0,0
891,481,517,743.0,1,0,0,0,0,0,0,0,0,0
892,475,516,743.0,1,0,0,0,0,0,0,0,0,0
893,470,516,743.0,1,0,0,0,0,0,0,0,0,0
894,469,514,743.0,1,0,0,0,0,0,0,0,0,0
895,470,506,743.0,1,0,0,0,0,0,0,0,0,0
896,472,501,743.0,1,0,0,0,0,0,0,0,0,0
897,472,515,743.0,1,0,0,0,0,0,0,0,0,0
898,473,521,743.0,1,0,0,0,0,0,0,0,0,0
899,474,521,743.0,1,0,0,0,0,0,0,0,0,0
900,476,517,743.0,1,0,0,0,0,0,0,0,0,0
901,477,510,743.0,1,0,0,0,0,0,0,0,0,0
902,479,514,743.0,1,0,0,0,0,0,0,0,0,0
903,481,514,743.0,1,0,0,0,0,0,0,0,0,0
904,482,513,743.0,1,0,0,0,0,0,0,0,0,0
905,484,506,743.0,1,0,0,0,0,0,0,0,0,0
906,485,501,743.0,1,0,0,0,0,0,0,0,0,0
907,486,516,743.0,1,0,0,0,0,0,0,0,0,0
908,488,519,743.0,1,0,0,0,0,0,0,0,0,0
909,489,513,743.0,1,0,0,0,0,0,0,0,0,0
910,491,506,743.0,1,0,0,0,0,0,0,0,0,0
911,491,512,743.0,1,0,0,0,0,0,0,0,0,0
912,493,515,743.0,1,0,0,0,0,0,0,0,0,0
913,494,509,743.0,1,0,0,0,0,0,0,0,0,0
914,495,507,743.0,1,0,0,0,0,0,0,0,0,0
915,496,517,743.0,1,0,0,0,0,0,0,0,0,0
916,497,518,743.0,1,0,0,0,0,0,0,0,0,0
917,498,514,743.0,1,0,0,0,0,0,0,0,0,0
918,500,510,743.0,1,0,0,0,0,0,0,0,0,0
919,501,502,743.0,1,0,0,0,0,0,0,0,0,0
920,502,502,743.0,1,0,0,0,0,0,0,0,0,0
921,502,515,743.0,1,0,0,0,0,0,0,0,0,0
922,503,512,743.0,1,0,0,0,0,0,0,0,0,0
923,503,506,743.0,1,0,0,0,0,0,0,0,0,0
924,504,502,743.0,1,0,0,0,0,0,0,0,0,0
925,505,505,743.0,1,0,0,0,0,0,0,0,0,0
926,507,518,743.0,1,0,0,0,0,0,0,0,0,0
927,508,516,743.0,1,0,0,0,0,0,0,0,0,0
928,509,515,743.0,1,0,0,0,0,0,0,0,0,0
929,510,514,743.0,1,0,0,0,0,0,0,0,0,0
930,511,509,743.0,1,0,0,0,0,0,0,0,0,0
931,512,506,743.0,1,0,0,0,0,0,0,0,0,0
932,514,503,743.0,1,0,0,0,0,0,0,0,0,0
933,514,500,743.0,1,0,0,0,0,0,0,0,0,0
934,515,504,743.0,1,0,0,0,0,0,0,0,0,0
935,516,511,743.0,1,0,0,0,0,0,0,0,0,0
936,517,507,743.0,1,0,0,0,0,0,0,0,0,0
937,518,509,743.0,1,0,0,0,0,0,0,0,0,0
938,519,507,743.0,1,0,0,0,0,0,0,0,0,0
939,520,503,743.0,1,0,0,0,0,0,0,0,0,0
940,521,509,743.0,1,0,0,0,0,0,0,0,0,0
941,523,506,743.0,1,0,0,0,0,0,0,0,0,0
942,524,494,743.0,1,0,0,0,0,0,0,0,0,0
943,526,494,743.0,1,0,0,0,0,0,0,0,0,0
944,527,509,743.0,1,0,0,0,0,0,0,0,0,0
945,529,509,743.0,1,0,0,0,0,0,0,0,0,0
946,530,509,743.0,1,0,0,0,0,0,0,0,0,0
947,532,503,743.0,1,0,0,0,0,0,0,0,0,0
948,534,504,743.0,1,0,0,0,0,0,0,0,0,0
949,536,507,743.0,1,0,0,0,0,0,0,0,0,0
950,537,507,743.0,1,0,0,0,0,0,0,0,0,0
951,539,502,743.0,1,0,0,0,0,0,0,0,0,0
952,540,499,743.0,1,0,0,0,0,0,0,0,0,0
953,540,502,743.0,1,0,0,0,0,0,0,0,0,0
954,540,501,743.0,1,0,0,0,0,0,0,0,0,0
955,541,499,743.0,1,0,0,0,0,0,0,0,0,0
956,541,505,743.0,1,0,0,0,0,0,0,0,0,0
957,541,501,743.0,1,0,0,0,0,0,0,0,0,0
958,540,502,743.0,1,0,0,0,0,0,0,0,0,0
959,539,498,743.0,1,0,0,0,0,0,0,0,0,0
960,538,506,743.0,1,0,0,0,0,0,0,0,0,0
961,535,508,743.0,1,0,0,0,0,0,0,0,0,0
962,531,510,743.0,1,0,0,0,0,0,0,0,0,0
963,527,511,743.0,1,0,0,0,0,0,0,0,0,0
964,521,507,743.0,1,0,0,0,0,0,0,0,0,0
965,515,509,743.0,1,0,0,0,0,0,0,0,0,0
966,509,512,743.0,1,0,0,0,0,0,0,0,0,0
967,503,514,743.0,1,0,0,0,0,0,0,0,0,0
968,497,515,743.0,1,0,0,0,0,0,0,0,0,0
969,493,515,743.0,1,0,0,0,0,0,0,0,0,0
970,489,519,743.0,1,0,0,0,0,0,0,0,0,0
971,485,517,743.0,1,0,0,0,0,0,0,0,0,0
972,482,516,743.0,1,0,0,0,0,0,0,0,0,0
973,479,515,743.0,1,0,0,0,0,0,0,0,0,0
974,478,518,743.0,1,0,0,0,0,0,0,0,0,0
975,477,521,743.0,1,0,0,0,0,0,0,0,0,0
976,476,518,743.0,1,0,0,0,0,0,0,0,0,0
977,476,509,743.0,1,0,0,0,0,0,0,0,0,0
978,475,500,743.0,1,0,0,0,0,0,0,0,0,0
979,476,526,743.0,1,0,0,0,0,0,0,0,0,0
980,476,527,743.0,1,0,0,0,0,0,0,0,0,0
981,477,524,743.0,1,0,0,0,0,0,0,0,0,0
982,478,521,743.0,1,0,0,0,0,0,0,0,0,0
983,480,514,743.0,1,0,0,0,0,0,0,0,0,0
984,481,520,743.0,1,0,0,0,0,0,0,0,0,0
985,482,516,743.0,1,0,0,0,0,0,0,0,0,0
986,483,509,743.0,1,0,0,0,0,0,0,0,0,0
987,484,512,743.0,1,0,0,0,0,0,0,0,0,0
988,485,523,743.0,1,0,0,0,0,0,0,0,0,0
989,486,524,743.0,1,0,0,0,0,0,0,0,0,0
990,488,517,743.0,1,0,0,0,0,0,0,0,0,0
991,489,517,743.0,1,0,0,0,0,0,0,0,0,0
992,490,520,743.0,1,0,0,0,0,0,0,0,0,0
993,491,515,743.0,1,0,0,0,0,0,0,0,0,0
994,492,516,743.0,1,0,0,0,0,0,0,0,0,0
995,494,509,743.0,1,0,0,0,0,0,0,0,0,0
996,494,513,743.0,1,0,0,0,0,0,0,0,0,0
997,494,514,743.0,1,0,0,0,0,0,0,0,0,0
998,495,513,743.0,1,0,0,0,0,0,0,0,0,0
999,496,514,743.0,1,0,0,0,0,0,0,0,0,0
1000,498,511,743.0,1,0,0,0,0,0,0,0,0,0
1001,498,514,743.0,1,0,0,0,0,0,0,0,0,0
1002,499,514,743.0,1,0,0,0,0,0,0,0,0,0
1003,500,510,743.0,1,0,0,0,0,0,0,0,0,0
1004,500,508,743.0,1,0,0,0,0,0,0,0,0,0
1005,501,507,743.0,1,0,0,0,0,0,0,0,0,0
1006,502,509,743.0,1,0,0,0,0,0,0,0,0,0
1007,503,510,743.0,1,0,0,0,0,0,0,0,0,0
1008,504,506,743.0,1,0,0,0,0,0,0,0,0,0
1009,504,514,743.0,1,0,0,0,0,0,0,0,0,0
1010,504,515,743.0,1,0,0,0,0,0,0,0,0,0
1011,505,507,743.0,1,0,0,0,0,0,0,0,0,0
1012,505,511,743.0,1,0,0,0,0,0,0,0,0,0
1013,506,516,743.0,1,0,0,0,0,0,0,0,0,0
1014,506,515,743.0,1,0,0,0,0,0,0,0,0,0
1015,507,515,743.0,1,0,0,0,0,0,0,0,0,0
1016,507,510,743.0,1,0,0,0,0,0,0,0,0,0
1017,507,507,743.0,1,0,0,0,0,0,0,0,0,0
1018,507,508,743.0,1,0,0,0,0,0,0,0,0,0
1019,507,508,743.0,1,0,0,0,0,0,0,0,0,0
1020,507,508,743.0,1,0,0,0,0,0,0,0,0,0
1021,508,511,743.0,1,0,0,0,0,0,0,0,0,0
1022,508,517,743.0,1,0,0,0,0,0,0,0,0,0
1023,508,513,743.0,1,0,0,0,0,0,0,0,0,0
1024,508,510,743.0,1,0,0,0,0,0,0,0,0,0
1025,508,506,743.0,1,0,0,0,0,0,0,0,0,0
1026,507,511,743.0,1,0,0,0,0,0,0,0,0,0
1027,507,509,743.0,1,0,0,0,0,0,0,0,0,0
1028,507,510,743.0,1,0,0,0,0,0,0,0,0,0
1029,506,515,743.0,1,0,0,0,0,0,0,0,0,0
1030,506,513,743.0,1,0,0,0,0,0,0,0,0,0
1031,507,510,743.0,1,0,0,0,0,0,0,0,0,0
1032,507,508,743.0,1,0,0,0,0,0,0,0,0,0
1033,507,505,743.0,1,0,0,0,0,0,0,0,0,0
1034,508,508,743.0,1,0,0,0,0,0,0,0,0,0
1035,508,508,743.0,1,0,0,0,0,0,0,0,0,0
1036,508,515,743.0,1,0,0,0,0,0,0,0,0,0
1037,508,514,743.0,1,0,0,0,0,0,0,0,0,0
1038,508,512,743.0,1,0,0,0,0,0,0,0,0,0
1039,509,507,743.0,1,0,0,0,0,0,0,0,0,0
1040,508,509,743.0,1,0,0,0,0,0,0,0,0,0
1041,509,505,743.0,1,0,0,0,0,0,0,0,0,0
1042,509,507,743.0,1,0,0,0,0,0,0,0,0,0
1043,509,511,743.0,1,0,0,0,0,0,0,0,0,0
1044,509,514,743.0,1,0,0,0,0,0,0,0,0,0
1045,509,513,743.0,1,0,0,0,0,0,0,0,0,0
1046,509,513,743.0,1,0,0,0,0,0,0,0,0,0
1047,510,509,743.0,1,0,0,0,0,0,0,0,0,0
1048,510,508,743.0,1,0,0,0,0,0,0,0,0,0
1049,509,510,743.0,1,0,0,0,0,0,0,0,0,0
1050,509,514,743.0,1,0,0,0,0,0,0,0,0,0
1051,510,511,743.0,1,0,0,0,0,0,0,0,0,0
1052,510,504,743.0,1,0,0,0,0,0,0,0,0,0
1053,511,502,743.0,1,0,0,0,0,0,0,0,0,0
1054,510,508,743.0,1,0,0,0,0,0,0,0,0,0
1055,510,513,743.0,1,0,0,0,0,0,0,0,0,0
1056,510,512,743.0,1,0,0,0,0,0,0,0,0,0
1057,510,513,743.0,1,0,0,0,0,0,0,0,0,0
1058,510,508,743.0,1,0,0,0,0,0,0,0,0,0
1059,510,504,743.0,1,0,0,0,0,0,0,0,0,0
1060,510,512,743.0,1,0,0,0,0,0,0,0,0,0
1061,510,514,743.0,1,0,0,0,0,0,0,0,0,0
1062,511,509,743.0,1,0,0,0,0,0,0,0,0,0
1063,510,506,743.0,1,0,0,0,0,0,0,0,0,0
1064,510,509,743.0,1,0,0,0,0,0,0,0,0,0
1065,511,512,743.0,1,0,0,0,0,0,0,0,0,0
1066,511,511,743.0,1,0,0,0,0,0,0,0,0,0
1067,512,506,743.0,1,0,0,0,0,0,0,0,0,0
1068,511,503,743.0,1,0,0,0,0,0,0,0,0,0
1069,511,511,743.0,1,0,0,0,0,0,0,0,0,0
1070,512,513,743.0,1,0,0,0,0,0,0,0,0,0
1071,512,509,743.0,1,0,0,0,0,0,0,0,0,0
1072,512,512,743.0,1,0,0,0,0,0,0,0,0,0
1073,512,511,743.0,1,0,0,0,0,0,0,0,0,0
1074,511,508,743.0,1,0,0,0,0,0,0,0,0,0
1075,511,511,743.0,1,0,0,0,0,0,0,0,0,0
1076,511,510,743.0,1,0,0,0,0,0,0,0,0,0
1077,511,511,744.0,1,0,0,0,0,0,0,0,0,0
1078,511,506,743.0,1,0,0,0,0,0,0,0,0,0
1079,511,510,744.0,1,0,0,0,0,0,0,0,0,0
1080,511,514,743.0,1,0,0,0,0,0,0,0,0,0
1081,511,513,743.0,1,0,0,0,0,0,0,0,0,0
1082,511,510,743.0,1,0,0,0,0,0,0,0,0,0
1083,510,505,743.0,1,0,0,0,0,0,0,0,0,0
1084,510,505,743.0,1,0,0,0,0,0,0,0,0,0
1085,510,513,743.0,1,0,0,0,0,0,0,0,0,0
1086,510,512,743.0,1,0,0,0,0,0,0,0,0,0
1087,511,508,743.0,1,0,0,0,0,0,0,0,0,0
1088,512,510,744.0,1,0,0,0,0,0,0,0,0,0
1089,513,512,744.0,1,0,0,0,0,0,0,0,0,0
1090,514,508,743.0,1,0,0,0,0,0,0,0,0,0
1091,515,506,743.0,1,0,0,0,0,0,0,0,0,0
1092,516,508,743.0,1,0,0,0,0,0,0,0,0,0
1093,518,506,743.0,1,0,0,0,0,0,0,0,0,0
1094,519,508,743.0,1,0,0,0,0,0,0,0,0,0
1095,520,505,744.0,1,0,0,0,0,0,0,0,0,0
1096,521,512,744.0,1,0,0,0,0,0,0,0,0,0
1097,523,512,743.0,1,0,0,0,0,0,0,0,0,0
1098,525,508,743.0,1,0,0,0,0,0,0,0,0,0
1099,526,506,743.0,1,0,0,0,0,0,0,0,0,0
1100,525,505,744.0,1,0,0,0,0,0,0,0,0,0
1101,523,506,744.0,1,0,0,0,0,0,0,0,0,0
1102,521,501,744.0,1,0,0,0,0,0,0,0,0,0
1103,518,505,743.0,1,0,0,0,0,0,0,0,0,0
1104,517,503,743.0,1,0,0,0,0,0,0,0,0,0
1105,516,502,743.0,1,0,0,0,0,0,0,0,0,0
1106,515,513,743.0,1,0,0,0,0,0,0,0,0,0
1107,513,514,743.0,1,0,0,0,0,0,0,0,0,0
1108,511,510,744.0,1,0,0,0,0,0,0,0,0,0
1109,508,510,744.0,1,0,0,0,0,0,0,0,0,0
1110,505,511,743.0,1,0,0,0,0,0,0,0,0,0
1111,505,512,744.0,1,0,0,0,0,0,0,0,0,0
1112,505,506,744.0,1,0,0,0,0,0,0,0,0,0
1113,505,506,743.0,1,0,0,0,0,0,0,0,0,0
1114,505,509,743.0,1,0,0,0,0,0,0,0,0,0
1115,505,513,744.0,1,0,0,0,0,0,0,0,0,0
1116,505,515,744.0,1,0,0,0,0,0,0,0,0,0
1117,506,516,744.0,1,0,0,0,0,0,0,0,0,0
1118,506,516,744.0,1,0,0,0,0,0,0,0,0,0
1119,506,511,744.0,1,0,0,0,0,0,0,0,0,0
1120,506,508,744.0,1,0,0,0,0,0,0,0,0,0
1121,506,514,743.0,1,0,0,0,0,0,0,0,0,0
1122,506,511,744.0,1,0,0,0,0,0,0,0,0,0
1123,506,510,744.0,1,0,0,0,0,0,0,0,0,0
1124,506,509,744.0,1,0,0,0,0,0,0,0,0,0
1125,506,507,743.0,1,0,0,0,0,0,0,0,0,0
1126,505,509,744.0,1,0,0,0,0,0,0,0,0,0
1127,502,504,744.0,1,0,0,0,0,0,0,0,0,0
1128,496,505,744.0,1,0,0,0,0,0,0,0,0,0
1129,495,508,744.0,1,0,0,0,0,0,0,0,0,0
1130,504,516,744.0,1,0,0,0,0,0,0,0,0,0
1131,515,507,744.0,1,0,0,0,0,0,0,0,0,0
1132,526,497,744.0,1,0,0,0,0,0,0,0,0,0
1133,550,504,743.0,1,0,0,0,0,0,0,0,0,0
1134,586,500,744.0,1,0,0,0,0,0,0,0,0,0
1135,632,492,744.0,1,0,0,0,0,0,0,0,0,0
1136,678,487,744.0,1,0,0,0,0,0,0,0,0,0
1137,684,485,744.0,1,0,0,0,0,0,0,0,0,0
1138,656,494,744.0,1,0,0,0,0,0,0,0,0,0
1139,614,502,744.0,1,0,0,0,0,0,0,0,0,0
1140,573,505,744.0,1,0,0,0,0,0,0,0,0,0
1141,541,514,744.0,1,0,0,0,0,0,0,0,0,0
1142,512,519,744.0,1,0,0,0,0,0,0,0,0,0
1143,491,518,744.0,1,0,0,0,0,0,0,0,0,0
1144,480,513,744.0,1,0,0,0,0,0,0,0,0,0
1145,474,511,744.0,1,0,0,0,0,0,0,0,0,0
1146,470,517,744.0,1,0,0,0,0,0,0,0,0,0
1147,470,510,744.0,1,0,0,0,0,0,0,0,0,0
1148,472,511,744.0,1,0,0,0,0,0,0,0,0,0
1149,473,510,744.0,1,0,0,0,0,0,0,0,0,0
1150,474,513,744.0,1,0,0,0,0,0,0,0,0,0
1151,475,517,744.0,1,0,0,0,0,0,0,0,0,0
1152,476,513,744.0,1,0,0,0,0,0,0,0,0,0
1153,477,508,744.0,1,0,0,0,0,0,0,0,0,0
1154,478,515,744.0,1,0,0,0,0,0,0,0,0,0
1155,480,517,744.0,1,0,0,0,0,0,0,0,0,0
1156,481,513,744.0,1,0,0,0,0,0,0,0,0,0
1157,482,513,744.0,1,0,0,0,0,0,0,0,0,0
1158,484,517,744.0,1,0,0,0,0,0,0,0,0,0
1159,485,517,744.0,1,0,0,0,0,0,0,0,0,0
1160,486,513,744.0,1,0,0,0,0,0,0,0,0,0
1161,488,513,744.0,1,0,0,0,0,0,0,0,0,0
1162,490,517,744.0,1,0,0,0,0,0,0,0,0,0
1163,491,518,744.0,1,0,0,0,0,0,0,0,0,0
1164,493,514,744.0,1,0,0,0,0,0,0,0,0,0
1165,493,515,744.0,1,0,0,0,0,0,0,0,0,0
1166,494,513,744.0,1,0,0,0,0,0,0,0,0,0
1167,495,517,744.0,1,0,0,0,0,0,0,0,0,0
1168,496,513,744.0,1,0,0,0,0,0,0,0,0,0
1169,497,505,744.0,1,0,0,0,0,0,0,0,0,0
1170,498,505,744.0,1,0,0,0,0,0,0,0,0,0
1171,499,518,744.0,1,0,0,0,0,0,0,0,0,0
1172,500,518,744.0,1,0,0,0,0,0,0,0,0,0
1173,501,514,744.0,1,0,0,0,0,0,0,0,0,0
1174,502,517,744.0,1,0,0,0,0,0,0,0,0,0
1175,503,514,744.0,1,0,0,0,0,0,0,0,0,0
1176,503,513,744.0,1,0,0,0,0,0,0,0,0,0
1177,504,513,744.0,1,0,0,0,0,0,0,0,0,0
1178,505,515,744.0,1,0,0,0,0,0,0,0,0,0
1179,507,513,744.0,1,0,0,0,0,0,0,0,0,0
1180,508,515,744.0,1,0,0,0,0,0,0,0,0,0
1181,508,513,744.0,1,0,0,0,0,0,0,0,0,0
1182,509,510,744.0,1,0,0,0,0,0,0,0,0,0
1183,510,509,744.0,1,0,0,0,0,0,0,0,0,0
1184,510,510,744.0,1,0,0,0,0,0,0,0,0,0
1185,511,510,744.0,1,0,0,0,0,0,0,0,0,0
1186,512,512,744.0,1,0,0,0,0,0,0,0,0,0
1187,513,511,744.0,1,0,0,0,0,0,0,0,0,0
1188,514,512,744.0,1,0,0,0,0,0,0,0,0,0
1189,515,510,744.0,1,0,0,0,0,0,0,0,0,0
1190,516,510,744.0,1,0,0,0,0,0,0,0,0,0
1191,517,509,744.0,1,0,0,0,0,0,0,0,0,0
1192,518,502,744.0,1,0,0,0,0,0,0,0,0,0
1193,519,499,744.0,1,0,0,0,0,0,0,0,0,0
1194,520,506,744.0,1,0,0,0,0,0,0,0,0,0
1195,522,516,744.0,1,0,0,0,0,0,0,0,0,0
1196,523,510,744.0,1,0,0,0,0,0,0,0,0,0
1197,525,513,744.0,1,0,0,0,0,0,0,0,0,0
1198,526,512,744.0,1,0,0,0,0,0,0,0,0,0
1199,528,508,744.0,1,0,0,0,0,0,0,0,0,0
1200,530,506,744.0,1,0,0,0,0,0,0,0,0,0
1201,532,504,744.0,1,0,0,0,0,0,0,0,0,0
1202,533,502,744.0,1,0,0,0,0,0,0,0,0,0
1203,535,501,744.0,1,0,0,0,0,0,0,0,0,0
1204,536,501,744.0,1,0,0,0,0,0,0,0,0,0
1205,537,500,744.0,1,0,0,0,0,0,0,0,0,0
1206,538,501,744.0,1,0,0,0,0,0,0,0,0,0
1207,539,498,744.0,1,0,0,0,0,0,0,0,0,0
1208,539,503,744.0,1,0,0,0,0,0,0,0,0,0
1209,538,503,744.0,1,0,0,0,0,0,0,0,0,0
1210,538,504,744.0,1,0,0,0,0,0,0,0,0,0
1211,538,497,744.0,1,0,0,0,0,0,0,0,0,0
1212,537,495,744.0,1,0,0,0,0,0,0,0,0,0
1213,536,504,744.0,1,0,0,0,0,0,0,0,0,0
1214,534,504,744.0,1,0,0,0,0,0,0,0,0,0
1215,531,503,744.0,1,0,0,0,0,0,0,0,0,0
1216,527,505,744.0,1,0,0,0,0,0,0,0,0,0
1217,523,509,744.0,1,0,0,0,0,0,0,0,0,0
1218,518,509,744.0,1,0,0,0,0,0,0,0,0,0
1219,512,509,744.0,1,0,0,0,0,0,0,0,0,0
1220,506,506,744.0,1,0,0,0,0,0,0,0,0,0
1221,501,507,744.0,1,0,0,0,0,0,0,0,0,0
1222,496,514,744.0,1,0,0,0,0,0,0,0,0,0
1223,491,518,744.0,1,0,0,0,0,0,0,0,0,0
1224,487,515,744.0,1,0,0,0,0,0,0,0,0,0
1225,483,511,744.0,1,0,0,0,0,0,0,0,0,0
1226,480,519,744.0,1,0,0,0,0,0,0,0,0,0
1227,478,524,744.0,1,0,0,0,0,0,0,0,0,0
1228,476,518,744.0,1,0,0,0,0,0,0,0,0,0
1229,475,514,744.0,1,0,0,0,0,0,0,0,0,0
1230,475,518,744.0,1,0,0,0,0,0,0,0,0,0
1231,475,515,744.0,1,0,0,0,0,0,0,0,0,0
1232,475,515,744.0,1,0,0,0,0,0,0,0,0,0
1233,475,518,744.0,1,0,0,0,0,0,0,0,0,0
1234,475,518,744.0,1,0,0,0,0,0,0,0,0,0
1235,476,514,744.0,1,0,0,0,0,0,0,0,0,0
1236,477,513,744.0,1,0,0,0,0,0,0,0,0,0
1237,478,523,744.0,1,0,0,0,0,0,0,0,0,0
1238,478,523,744.0,1,0,0,0,0,0,0,0,0,0
1239,480,522,744.0,1,0,0,0,0,0,0,0,0,0
1240,481,517,744.0,1,0,0,0,0,0,0,0,0,0
1241,482,516,744.0,1,0,0,0,0,0,0,0,0,0
1242,483,517,744.0,1,0,0,0,0,0,0,0,0,0
1243,484,507,744.0,1,0,0,0,0,0,0,0,0,0
1244,486,513,744.0,1,0,0,0,0,0,0,0,0,0
1245,487,511,744.0,1,0,0,0,0,0,0,0,0,0
1246,488,515,744.0,1,0,0,0,0,0,0,0,0,0
1247,489,518,744.0,1,0,0,0,0,0,0,0,0,0
1248,490,509,744.0,1,0,0,0,0,0,0,0,0,0
1249,491,504,744.0,1,0,0,0,0,0,0,0,0,0
1250,492,515,744.0,1,0,0,0,0,0,0,0,0,0
1251,493,511,744.0,1,0,0,0,0,0,0,0,0,0
1252,495,513,744.0,1,0,0,0,0,0,0,0,0,0
1253,495,506,744.0,1,0,0,0,0,0,0,0,0,0
1254,496,505,744.0,1,0,0,0,0,0,0,0,0,0
1255,496,515,744.0,1,0,0,0,0,0,0,0,0,0
1256,497,516,744.0,1,0,0,0,0,0,0,0,0,0
1257,497,511,744.0,1,0,0,0,0,0,0,0,0,0
1258,498,515,744.0,1,0,0,0,0,0,0,0,0,0
1259,498,516,744.0,1,0,0,0,0,0,0,0,0,0
1260,499,511,744.0,1,0,0,0,0,0,0,0,0,0
1261,501,506,744.0,1,0,0,0,0,0,0,0,0,0
1262,501,512,744.0,1,0,0,0,0,0,0,0,0,0
1263,502,510,744.0,1,0,0,0,0,0,0,0,0,0
1264,502,513,744.0,1,0,0,0,0,0,0,0,0,0
1265,502,509,744.0,1,0,0,0,0,0,0,0,0,0
1266,502,512,744.0,1,0,0,0,0,0,0,0,0,0
1267,503,515,744.0,1,0,0,0,0,0,0,0,0,0
1268,504,508,744.0,1,0,0,0,0,0,0,0,0,0
1269,504,503,744.0,1,0,0,0,0,0,0,0,0,0
1270,504,506,744.0,1,0,0,0,0,0,0,0,0,0
1271,504,504,744.0,1,0,0,0,0,0,0,0,0,0
1272,504,511,744.0,1,0,0,0,0,0,0,0,0,0
1273,504,515,744.0,1,0,0,0,0,0,0,0,0,0
1274,504,518,744.0,1,0,0,0,0,0,0,0,0,0
1275,504,517,744.0,1,0,0,0,0,0,0,0,0,0
1276,504,512,744.0,1,0,0,0,0,0,0,0,0,0
1277,504,509,744.0,1,0,0,0,0,0,0,0,0,0
1278,504,508,744.0,1,0,0,0,0,0,0,0,0,0
1279,504,506,744.0,1,0,0,0,0,0,0,0,0,0
1280,504,508,744.0,1,0,0,0,0,0,0,0,0,0
1281,505,509,744.0,1,0,0,0,0,0,0,0,0,0
1282,505,513,744.0,1,0,0,0,0,0,0,0,0,0
1283,505,518,744.0,1,0,0,0,0,0,0,0,0,0
1284,505,515,744.0,1,0,0,0,0,0,0,0,0,0
1285,505,515,744.0,1,0,0,0,0,0,0,0,0,0
1286,505,511,744.0,1,0,0,0,0,0,0,0,0,0
1287,506,507,744.0,1,0,0,0,0,0,0,0,0,0
1288,506,507,744.0,1,0,0,0,0,0,0,0,0,0
1289,506,512,744.0,1,0,0,0,0,0,0,0,0,0
1290,506,509,744.0,1,0,0,0,0,0,0,0,0,0
1291,506,508,744.0,1,0,0,0,0,0,0,0,0,0
1292,506,517,744.0,1,0,0,0,0,0,0,0,0,0
1293,506,512,744.0,1,0,0,0,0,0,0,0,0,0
1294,506,503,744.0,1,0,0,0,0,0,0,0,0,0
1295,506,514,744.0,1,0,0,0,0,0,0,0,0,0
1296,506,517,744.0,1,0,0,0,0,0,0,0,0,0
1297,507,515,744.0,1,0,0,0,0,0,0,0,0,0
1298,507,511,744.0,1,0,0,0,0,0,0,0,0,0
1299,507,506,744.0,1,0,0,0,0,0,0,0,0,0
1300,507,505,744.0,1,0,0,0,0,0,0,0,0,0
1301,507,509,744.0,1,0,0,0,0,0,0,0,0,0
1302,507,514,744.0,1,0,0,0,0,0,0,0,0,0
1303,507,512,744.0,1,0,0,0,0,0,0,0,0,0
1304,507,512,744.0,1,0,0,0,0,0,0,0,0,0
1305,507,507,744.0,1,0,0,0,0,0,0,0,0,0
1306,507,511,744.0,1,0,0,0,0,0,0,0,0,0
1307,507,517,744.0,1,0,0,0,0,0,0,0,0,0
1308,507,512,744.0,1,0,0,0,0,0,0,0,0,0
1309,508,508,744.0,1,0,0,0,0,0,0,0,0,0
1310,508,506,744.0,1,0,0,0,0,0,0,0,0,0
1311,508,508,744.0,1,0,0,0,0,0,0,0,0,0
1312,508,510,744.0,1,0,0,0,0,0,0,0,0,0
1313,508,505,744.0,1,0,0,0,0,0,0,0,0,0
1314,508,518,744.0,1,0,0,0,0,0,0,0,0,0
1315,508,516,744.0,1,0,0,0,0,0,0,0,0,0
1316,508,513,744.0,1,0,0,0,0,0,0,0,0,0
1317,508,508,744.0,1,0,0,0,0,0,0,0,0,0
1318,509,509,744.0,1,0,0,0,0,0,0,0,0,0
1319,509,514,744.0,1,0,0,0,0,0,0,0,0,0
1320,509,510,744.0,1,0,0,0,0,0,0,0,0,0
1321,509,507,744.0,1,0,0,0,0,0,0,0,0,0
1322,509,510,744.0,1,0,0,0,0,0,0,0,0,0
1323,509,513,744.0,1,0,0,0,0,0,0,0,0,0
1324,509,508,744.0,1,0,0,0,0,0,0,0,0,0
1325,509,509,744.0,1,0,0,0,0,0,0,0,0,0
1326,510,508,744.0,1,0,0,0,0,0,0,0,0,0
1327,510,509,744.0,1,0,0,0,0,0,0,0,0,0
1328,510,506,744.0,1,0,0,0,0,0,0,0,0,0
1329,510,505,744.0,1,0,0,0,0,0,0,0,0,0
1330,511,514,744.0,1,0,0,0,0,0,0,0,0,0
1331,510,512,744.0,1,0,0,0,0,0,0,0,0,0
1332,510,495,744.0,1,0,0,0,0,0,0,0,0,0
1333,510,510,744.0,1,0,0,0,0,0,0,0,0,0
1334,510,517,744.0,1,0,0,0,0,0,0,0,0,0
1335,509,514,744.0,1,0,0,0,0,0,0,0,0,0
1336,509,511,744.0,1,0,0,0,0,0,0,0,0,0
1337,510,506,744.0,1,0,0,0,0,0,0,0,0,0
1338,509,510,744.0,1,0,0,0,0,0,0,0,0,0
1339,510,508,744.0,1,0,0,0,0,0,0,0,0,0
1340,510,508,744.0,1,0,0,0,0,0,0,0,0,0
1341,511,505,744.0,1,0,0,0,0,0,0,0,0,0
1342,512,513,744.0,1,0,0,0,0,0,0,0,0,0
1343,514,510,744.0,1,0,0,0,0,0,0,0,0,0
1344,515,501,744.0,1,0,0,0,0,0,0,0,0,0
1345,516,506,744.0,1,0,0,0,0,0,0,0,0,0
1346,517,510,744.0,1,0,0,0,0,0,0,0,0,0
1347,518,504,744.0,1,0,0,0,0,0,0,0,0,0
1348,519,500,744.0,1,0,0,0,0,0,0,0,0,0
1349,522,507,744.0,1,0,0,0,0,0,0,0,0,0
1350,524,511,744.0,1,0,0,0,0,0,0,0,0,0
1351,525,509,744.0,1,0,0,0,0,0,0,0,0,0
1352,525,503,744.0,1,0,0,0,0,0,0,0,0,0
1353,523,502,744.0,1,0,0,0,0,0,0,0,0,0
1354,521,509,744.0,1,0,0,0,0,0,0,0,0,0
1355,519,506,744.0,1,0,0,0,0,0,0,0,0,0
1356,517,504,744.0,1,0,0,0,0,0,0,0,0,0
1357,515,510,744.0,1,0,0,0,0,0,0,0,0,0
1358,514,512,744.0,1,0,0,0,0,0,0,0,0,0
1359,512,504,744.0,1,0,0,0,0,0,0,0,0,0
1360,510,504,744.0,1,0,0,0,0,0,0,0,0,0
1361,507,518,744.0,1,0,0,0,0,0,0,0,0,0
1362,506,516,744.0,1,0,0,0,0,0,0,0,0,0
1363,504,510,744.0,1,0,0,0,0,0,0,0,0,0
1364,504,503,744.0,1,0,0,0,0,0,0,0,0,0
1365,503,508,744.0,1,0,0,0,0,0,0,0,0,0
1366,504,518,744.0,1,0,0,0,0,0,0,0,0,0
1367,504,515,744.0,1,0,0,0,0,0,0,0,0,0
1368,504,511,744.0,1,0,0,0,0,0,0,0,0,0
1369,504,515,744.0,1,0,0,0,0,0,0,0,0,0
1370,504,516,744.0,1,0,0,0,0,0,0,0,0,0
1371,505,508,744.0,1,0,0,0,0,0,0,0,0,0
1372,505,514,744.0,1,0,0,0,0,0,0,0,0,0
1373,505,512,744.0,1,0,0,0,0,0,0,0,0,0
1374,505,509,744.0,1,0,0,0,0,0,0,0,0,0
1375,505,510,744.0,1,0,0,0,0,0,0,0,0,0
1376,506,508,744.0,1,0,0,0,0,0,0,0,0,0
1377,506,506,744.0,1,0,0,0,0,0,0,0,0,0
1378,506,511,744.0,1,0,0,0,0,0,0,0,0,0
1379,504,513,744.0,1,0,0,0,0,0,0,0,0,0
1380,500,514,744.0,1,0,0,0,0,0,0,0,0,0
1381,495,513,744.0,1,0,0,0,0,0,0,0,0,0
1382,497,510,744.0,1,0,0,0,0,0,0,0,0,0
1383,506,518,744.0,1,0,0,0,0,0,0,0,0,0
1384,517,508,744.0,1,0,0,0,0,0,0,0,0,0
1385,532,499,744.0,1,0,0,0,0,0,0,0,0,0
1386,562,497,744.0,1,0,0,0,0,0,0,0,0,0
1387,602,486,744.0,1,0,0,0,0,0,0,0,0,0
1388,650,488,744.0,1,0,0,0,0,0,0,0,0,0
1389,689,487,744.0,1,0,0,0,0,0,0,0,0,0
1390,675,494,744.0,1,0,0,0,0,0,0,0,0,0
1391,638,504,744.0,1,0,0,0,0,0,0,0,0,0
1392,595,511,744.0,1,0,0,0,0,0,0,0,0,0
1393,561,507,744.0,1,0,0,0,0,0,0,0,0,0
1394,534,511,744.0,1,0,0,0,0,0,0,0,0,0
1395,509,519,744.0,1,0,0,0,0,0,0,0,0,0
1396,489,520,744.0,1,0,0,0,0,0,0,0,0,0
1397,479,520,744.0,1,0,0,0,0,0,0,0,0,0
1398,475,518,744.0,1,0,0,0,0,0,0,0,0,0
1399,471,510,744.0,1,0,0,0,0,0,0,0,0,0
1400,469,503,744.0,1,0,0,0,0,0,0,0,0,0
1401,471,518,744.0,1,0,0,0,0,0,0,0,0,0
1402,472,519,744.0,1,0,0,0,0,0,0,0,0,0
1403,473,513,744.0,1,0,0,0,0,0,0,0,0,0
1404,475,506,744.0,1,0,0,0,0,0,0,0,0,0
1405,477,505,744.0,1,0,0,0,0,0,0,0,0,0
1406,479,507,744.0,1,0,0,0,0,0,0,0,0,0
1407,480,513,744.0,1,0,0,0,0,0,0,0,0,0
1408,481,518,744.0,1,0,0,0,0,0,0,0,0,0
1409,482,514,744.0,1,0,0,0,0,0,0,0,0,0
1410,484,505,744.0,1,0,0,0,0,0,0,0,0,0
1411,485,502,744.0,1,0,0,0,0,0,0,0,0,0
1412,487,514,744.0,1,0,0,0,0,0,0,0,0,0
1413,488,515,744.0,1,0,0,0,0,0,0,0,0,0
1414,490,515,744.0,1,0,0,0,0,0,0,0,0,0
1415,491,513,744.0,1,0,0,0,0,0,0,0,0,0
1416,492,511,744.0,1,0,0,0,0,0,0,0,0,0
1417,493,510,744.0,1,0,0,0,0,0,0,0,0,0
1418,494,511,744.0,1,0,0,0,0,0,0,0,0,0
1419,495,514,744.0,1,0,0,0,0,0,0,0,0,0
1420,496,511,744.0,1,0,0,0,0,0,0,0,0,0
1421,498,508,744.0,1,0,0,0,0,0,0,0,0,0
1422,499,509,744.0,1,0,0,0,0,0,0,0,0,0
1423,499,504,744.0,1,0,0,0,0,0,0,0,0,0
1424,500,499,744.0,1,0,0,0,0,0,0,0,0,0
1425,500,505,744.0,1,0,0,0,0,0,0,0,0,0
1426,501,510,744.0,1,0,0,0,0,0,0,0,0,0
1427,502,510,744.0,1,0,0,0,0,0,0,0,0,0
1428,502,517,744.0,1,0,0,0,0,0,0,0,0,0
1429,503,516,744.0,1,0,0,0,0,0,0,0,0,0
1430,504,514,744.0,1,0,0,0,0,0,0,0,0,0
1431,504,511,744.0,1,0,0,0,0,0,0,0,0,0
1432,501,508,744.0,1,0,0,0,0,0,0,0,0,0
1433,501,506,744.0,1,0,0,0,0,0,0,0,0,0
1434,503,498,744.0,1,0,0,0,0,0,0,0,0,0
1435,507,501,744.0,1,0,0,0,0,0,0,0,0,0
1436,511,513,744.0,1,0,0,0,0,0,0,0,0,0
1437,512,513,744.0,1,0,0,0,0,0,0,0,0,0
1438,513,510,744.0,1,0,0,0,0,0,0,0,0,0
1439,513,510,744.0,1,0,0,0,0,0,0,0,0,0
1440,512,510,744.0,1,0,0,0,0,0,0,0,0,0
1441,510,508,744.0,1,0,0,0,0,0,0,0,0,0
1442,512,503,744.0,1,0,0,0,0,0,0,0,0,0
1443,514,505,744.0,1,0,0,0,0,0,0,0,0,0
1444,516,506,744.0,1,0,0,0,0,0,0,0,0,0
1445,520,510,744.0,1,0,0,0,0,0,0,0,0,0
1446,526,511,744.0,1,0,0,0,0,0,0,0,0,0
1447,530,509,744.0,1,0,0,0,0,0,0,0,0,0
1448,529,505,744.0,1,0,0,0,0,0,0,0,0,0
1449,529,502,744.0,1,0,0,0,0,0,0,0,0,0
1450,528,493,744.0,1,0,0,0,0,0,0,0,0,0
1451,528,499,744.0,1,0,0,0,0,0,0,0,0,0
1452,530,504,744.0,1,0,0,0,0,0,0,0,0,0
1453,533,508,744.0,1,0,0,0,0,0,0,0,0,0
1454,533,507,744.0,1,0,0,0,0,0,0,0,0,0
1455,538,504,744.0,1,0,0,0,0,0,0,0,0,0
1456,537,506,744.0,1,0,0,0,0,0,0,0,0,0
1457,533,509,744.0,1,0,0,0,0,0,0,0,0,0
1458,530,508,744.0,1,0,0,0,0,0,0,0,0,0
1459,531,501,744.0,1,0,0,0,0,0,0,0,0,0
1460,533,502,744.0,1,0,0,0,0,0,0,0,0,0
1461,538,503,744.0,1,0,0,0,0,0,0,0,0,0
1462,541,503,744.0,1,0,0,0,0,0,0,0,0,0
1463,547,501,744.0,1,0,0,0,0,0,0,0,0,0
1464,555,493,744.0,1,0,0,0,0,0,0,0,0,0
1465,556,491,744.0,1,0,0,0,0,0,0,0,0,0
1466,546,508,744.0,1,0,0,0,0,0,0,0,0,0
1467,533,515,744.0,1,0,0,0,0,0,0,0,0,0
1468,522,504,744.0,1,0,0,0,0,0,0,0,0,0
1469,526,500,744.0,1,0,0,0,0,0,0,0,0,0
1470,535,509,744.0,1,0,0,0,0,0,0,0,0,0
1471,537,508,744.0,1,0,0,0,0,0,0,0,0,0
1472,532,515,744.0,1,0,0,0,0,0,0,0,0,0
1473,524,519,744.0,1,0,0,0,0,0,0,0,0,0
1474,516,517,744.0,1,0,0,0,0,0,0,0,0,0
1475,509,518,744.0,1,0,0,0,0,0,0,0,0,0
1476,502,520,744.0,1,0,0,0,0,0,0,0,0,0
1477,496,519,744.0,1,0,0,0,0,0,0,0,0,0
1478,492,510,744.0,1,0,0,0,0,0,0,0,0,0
1479,489,511,744.0,1,0,0,0,0,0,0,0,0,0
1480,486,520,744.0,1,0,0,0,0,0,0,0,0,0
1481,484,535,744.0,1,0,0,0,0,0,0,0,0,0
1482,483,528,744.0,1,0,0,0,0,0,0,0,0,0
1483,485,522,744.0,1,0,0,0,0,0,0,0,0,0
1484,486,521,744.0,1,0,0,0,0,0,0,0,0,0
1485,485,520,744.0,1,0,0,0,0,0,0,0,0,0
1486,483,517,744.0,1,0,0,0,0,0,0,0,0,0
1487,483,514,744.0,1,0,0,0,0,0,0,0,0,0
1488,484,514,744.0,1,0,0,0,0,0,0,0,0,0
1489,483,521,744.0,1,0,0,0,0,0,0,0,0,0
1490,484,513,744.0,1,0,0,0,0,0,0,0,0,0
1491,486,503,744.0,1,0,0,0,0,0,0,0,0,0
1492,486,516,744.0,1,0,0,0,0,0,0,0,0,0
1493,483,520,744.0,1,0,0,0,0,0,0,0,0,0
1494,480,520,744.0,1,0,0,0,0,0,0,0,0,0
1495,480,514,744.0,1,0,0,0,0,0,0,0,0,0
1496,485,502,744.0,1,0,0,0,0,0,0,0,0,0
1497,487,509,744.0,1,0,0,0,0,0,0,0,0,0
1498,491,518,744.0,1,0,0,0,0,0,0,0,0,0
1499,494,517,744.0,1,0,0,0,0,0,0,0,0,0
1500,497,518,744.0,1,0,0,0,0,0,0,0,0,0
1501,496,517,744.0,1,0,0,0,0,0,0,0,0,0
1502,495,514,744.0,1,0,0,0,0,0,0,0,0,0
1503,497,512,744.0,1,0,0,0,0,0,0,0,0,0
1504,500,507,744.0,1,0,0,0,0,0,0,0,0,0
1505,502,507,744.0,1,0,0,0,0,0,0,0,0,0
1506,504,512,744.0,1,0,0,0,0,0,0,0,0,0
1507,508,515,744.0,1,0,0,0,0,0,0,0,0,0
1508,505,517,744.0,1,0,0,0,0,0,0,0,0,0
1509,498,516,744.0,1,0,0,0,0,0,0,0,0,0
1510,498,511,744.0,1,0,0,0,0,0,0,0,0,0
1511,503,509,744.0,1,0,0,0,0,0,0,0,0,0
1512,505,510,744.0,1,0,0,0,0,0,0,0,0,0
1513,509,511,744.0,1,0,0,0,0,0,0,0,0,0
1514,512,514,744.0,1,0,0,0,0,0,0,0,0,0
1515,515,515,744.0,1,0,0,0,0,0,0,0,0,0
1516,515,516,744.0,1,0,0,0,0,0,0,0,0,0
1517,513,515,744.0,1,0,0,0,0,0,0,0,0,0
1518,512,513,744.0,1,0,0,0,0,0,0,0,0,0
1519,508,515,744.0,1,0,0,0,0,0,0,0,0,0
1520,504,515,744.0,1,0,0,0,0,0,0,0,0,0
1521,499,515,744.0,1,0,0,0,0,0,0,0,0,0
1522,494,513,744.0,1,0,0,0,0,0,0,0,0,0
1523,492,511,744.0,1,0,0,0,0,0,0,0,0,0
1524,496,513,744.0,1,0,0,0,0,0,0,0,0,0
1525,504,517,744.0,1,0,0,0,0,0,0,0,0,0
1526,513,517,744.0,1,0,0,0,0,0,0,0,0,0
1527,519,516,744.0,1,0,0,0,0,0,0,0,0,0
1528,517,513,744.0,1,0,0,0,0,0,0,0,0,0
1529,514,513,744.0,1,0,0,0,0,0,0,0,0,0
1530,512,516,744.0,1,0,0,0,0,0,0,0,0,0
1531,510,518,744.0,1,0,0,0,0,0,0,0,0,0
1532,508,519,744.0,1,0,0,0,0,0,0,0,0,0
1533,506,518,744.0,1,0,0,0,0,0,0,0,0,0
1534,505,517,744.0,1,0,0,0,0,0,0,0,0,0
1535,507,516,744.0,1,0,0,0,0,0,0,0,0,0
1536,506,513,744.0,1,0,0,0,0,0,0,0,0,0
1537,504,513,744.0,1,0,0,0,0,0,0,0,0,0
1538,508,514,744.0,1,0,0,0,0,0,0,0,0,0
1539,511,515,744.0,1,0,0,0,0,0,0,0,0,0
1540,510,517,744.0,1,0,0,0,0,0,0,0,0,0
1541,512,515,744.0,1,0,0,0,0,0,0,0,0,0
1542,515,512,744.0,1,0,0,0,0,0,0,0,0,0
1543,517,506,744.0,1,0,0,0,0,0,0,0,0,0
1544,517,508,744.0,1,0,0,0,0,0,0,0,0,0
1545,519,510,744.0,1,0,0,0,0,0,0,0,0,0
1546,513,512,744.0,1,0,0,0,0,0,0,0,0,0
1547,503,512,744.0,1,0,0,0,0,0,0,0,0,0
1548,498,511,744.0,1,0,0,0,0,0,0,0,0,0
1549,500,511,744.0,1,0,0,0,0,0,0,0,0,0
1550,498,511,744.0,1,0,0,0,0,0,0,0,0,0
1551,494,514,744.0,1,0,0,0,0,0,0,0,0,0
1552,498,517,744.0,1,0,0,0,0,0,0,0,0,0
1553,507,517,744.0,1,0,0,0,0,0,0,0,0,0
1554,512,514,744.0,1,0,0,0,0,0,0,0,0,0
1555,510,512,744.0,1,0,0,0,0,0,0,0,0,0
1556,509,509,744.0,1,0,0,0,0,0,0,0,0,0
1557,507,504,744.0,1,0,0,0,0,0,0,0,0,0
1558,503,504,744.0,1,0,0,0,0,0,0,0,0,0
1559,497,508,744.0,1,0,0,0,0,0,0,0,0,0
1560,493,511,744.0,1,0,0,0,0,0,0,0,0,0
1561,496,504,744.0,1,0,0,0,0,0,0,0,0,0
1562,503,506,744.0,1,0,0,0,0,0,0,0,0,0
1563,502,511,744.0,1,0,0,0,0,0,0,0,0,0
1564,497,511,744.0,1,0,0,0,0,0,0,0,0,0
1565,494,509,744.0,1,0,0,0,0,0,0,0,0,0
1566,492,510,744.0,1,0,0,0,0,0,0,0,0,0
1567,492,507,744.0,1,0,0,0,0,0,0,0,0,0
1568,494,505,744.0,1,0,0,0,0,0,0,0,0,0
1569,502,502,744.0,1,0,0,0,0,0,0,0,0,0
1570,519,493,744.0,1,0,0,0,0,0,0,0,0,0
1571,532,504,744.0,1,0,0,0,0,0,0,0,0,0
1572,530,512,744.0,1,0,0,0,0,0,0,0,0,0
1573,523,509,744.0,1,0,0,0,0,0,0,0,0,0
1574,512,505,744.0,1,0,0,0,0,0,0,0,0,0
1575,504,503,744.0,1,0,0,0,0,0,0,0,0,0
1576,507,504,744.0,1,0,0,0,0,0,0,0,0,0
1577,515,503,744.0,1,0,0,0,0,0,0,0,0,0
1578,518,503,744.0,1,0,0,0,0,0,0,0,0,0
1579,513,502,744.0,1,0,0,0,0,0,0,0,0,0
1580,507,501,744.0,1,0,0,0,0,0,0,0,0,0
1581,501,499,744.0,1,0,0,0,0,0,0,0,0,0
1582,501,497,744.0,1,0,0,0,0,0,0,0,0,0
1583,508,497,744.0,1,0,0,0,0,0,0,0,0,0
1584,519,500,744.0,1,0,0,0,0,0,0,0,0,0
1585,524,502,744.0,1,0,0,0,0,0,0,0,0,0
1586,527,498,744.0,1,0,0,0,0,0,0,0,0,0
1587,529,499,744.0,1,0,0,0,0,0,0,0,0,0
1588,523,503,744.0,1,0,0,0,0,0,0,0,0,0
1589,515,503,744.0,1,0,0,0,0,0,0,0,0,0
1590,515,503,744.0,1,0,0,0,0,0,0,0,0,0
1591,518,503,744.0,1,0,0,0,0,0,0,0,0,0
1592,520,504,744.0,1,0,0,0,0,0,0,0,0,0
1593,515,505,744.0,1,0,0,0,0,0,0,0,0,0
1594,509,505,744.0,1,0,0,0,0,0,0,0,0,0
1595,506,505,744.0,1,0,0,0,0,0,0,0,0,0
1596,506,506,744.0,1,0,0,0,0,0,0,0,0,0
1597,504,506,744.0,1,0,0,0,0,0,0,0,0,0
1598,502,507,744.0,1,0,0,0,0,0,0,0,0,0
1599,500,507,744.0,1,0,0,0,0,0,0,0,0,0
1600,499,507,744.0,1,0,0,0,0,0,0,0,0,0
1601,495,507,744.0,1,0,0,0,0,0,0,0,0,0
1602,488,508,744.0,1,0,0,0,0,0,0,0,0,0
1603,487,508,744.0,1,0,0,0,0,0,0,0,0,0
1604,498,507,744.0,1,0,0,0,0,0,0,0,0,0
1605,510,507,744.0,1,0,0,0,0,0,0,0,0,0
1606,515,508,744.0,1,0,0,0,0,0,0,0,0,0
1607,515,508,744.0,1,0,0,0,0,0,0,0,0,0
1608,510,507,744.0,1,0,0,0,0,0,0,0,0,0
1609,505,507,744.0,1,0,0,0,0,0,0,0,0,0
1610,503,507,744.0,1,0,0,0,0,0,0,0,0,0
1611,503,506,744.0,1,0,0,0,0,0,0,0,0,0
1612,501,505,744.0,1,0,0,0,0,0,0,0,0,0
1613,499,505,744.0,1,0,0,0,0,0,0,0,0,0
1614,496,507,744.0,1,0,0,0,0,0,0,0,0,0
1615,490,509,744.0,1,0,0,0,0,0,0,0,0,0
1616,492,511,744.0,1,0,0,0,0,0,0,0,0,0
1617,505,511,744.0,1,0,0,0,0,0,0,0,0,0
1618,521,506,744.0,1,0,0,0,0,0,0,0,0,0
1619,540,500,744.0,1,0,0,0,0,0,0,0,0,0
1620,568,496,744.0,1,0,0,0,0,0,0,0,0,0
1621,606,492,744.0,1,0,0,0,0,0,0,0,0,0
1622,651,488,744.0,1,0,0,0,0,0,0,0,0,0
1623,687,486,744.0,1,0,0,0,0,0,0,0,0,0
1624,676,487,744.0,1,0,0,0,0,0,0,0,0,0
1625,642,495,744.0,1,0,0,0,0,0,0,0,0,0
1626,607,504,744.0,1,0,0,0,0,0,0,0,0,0
1627,575,510,744.0,1,0,0,0,0,0,0,0,0,0
1628,549,512,744.0,1,0,0,0,0,0,0,0,0,0
1629,515,514,744.0,1,0,0,0,0,0,0,0,0,0
1630,482,517,744.0,1,0,0,0,0,0,0,0,0,0
1631,470,516,744.0,1,0,0,0,0,0,0,0,0,0
1632,478,514,744.0,1,0,0,0,0,0,0,0,0,0
1633,492,514,744.0,1,0,0,0,0,0,0,0,0,0
1634,511,518,744.0,1,0,0,0,0,0,0,0,0,0
1635,522,519,744.0,1,0,0,0,0,0,0,0,0,0
1636,523,519,744.0,1,0,0,0,0,0,0,0,0,0
1637,511,515,744.0,1,0,0,0,0,0,0,0,0,0
1638,494,516,744.0,1,0,0,0,0,0,0,0,0,0
1639,494,518,744.0,1,0,0,0,0,0,0,0,0,0
1640,501,515,744.0,1,0,0,0,0,0,0,0,0,0
1641,501,517,744.0,1,0,0,0,0,0,0,0,0,0
1642,496,518,744.0,1,0,0,0,0,0,0,0,0,0
1643,496,516,744.0,1,0,0,0,0,0,0,0,0,0
1644,484,517,744.0,1,0,0,0,0,0,0,0,0,0
1645,460,518,744.0,1,0,0,0,0,0,0,0,0,0
1646,427,519,744.0,1,0,0,0,0,0,0,0,0,0
1647,426,518,744.0,1,0,0,0,0,0,0,0,0,0
1648,447,519,744.0,1,0,0,0,0,0,0,0,0,0
1649,463,521,744.0,1,0,0,0,0,0,0,0,0,0
1650,475,520,744.0,1,0,0,0,0,0,0,0,0,0
1651,483,515,744.0,1,0,0,0,0,0,0,0,0,0
1652,483,515,744.0,1,0,0,0,0,0,0,0,0,0
1653,478,516,744.0,1,0,0,0,0,0,0,0,0,0
1654,470,518,744.0,1,0,0,0,0,0,0,0,0,0
1655,475,520,744.0,1,0,0,0,0,0,0,0,0,0
1656,493,519,744.0,1,0,0,0,0,0,0,0,0,0
1657,510,519,744.0,1,0,0,0,0,0,0,0,0,0
1658,507,523,744.0,1,0,0,0,0,0,0,0,0,0
1659,486,528,744.0,1,0,0,0,0,0,0,0,0,0
1660,465,528,744.0,1,0,0,0,0,0,0,0,0,0
1661,464,527,744.0,1,0,0,0,0,0,0,0,0,0
1662,484,529,744.0,1,0,0,0,0,0,0,0,0,0
1663,506,529,744.0,1,0,0,0,0,0,0,0,0,0
1664,520,527,744.0,1,0,0,0,0,0,0,0,0,0
1665,524,525,744.0,1,0,0,0,0,0,0,0,0,0
1666,521,524,744.0,1,0,0,0,0,0,0,0,0,0
1667,519,521,744.0,1,0,0,0,0,0,0,0,0,0
1668,514,520,744.0,1,0,0,0,0,0,0,0,0,0
1669,512,521,744.0,1,0,0,0,0,0,0,0,0,0
1670,519,518,744.0,1,0,0,0,0,0,0,0,0,0
1671,516,520,744.0,1,0,0,0,0,0,0,0,0,0
1672,502,519,744.0,1,0,0,0,0,0,0,0,0,0
1673,496,517,744.0,1,0,0,0,0,0,0,0,0,0
1674,511,515,744.0,1,0,0,0,0,0,0,0,0,0
1675,536,517,744.0,1,0,0,0,0,0,0,0,0,0
1676,545,522,744.0,1,0,0,0,0,0,0,0,0,0
1677,538,524,744.0,1,0,0,0,0,0,0,0,0,0
1678,530,520,744.0,1,0,0,0,0,0,0,0,0,0
1679,519,519,744.0,1,0,0,0,0,0,0,0,0,0
1680,508,515,744.0,1,0,0,0,0,0,0,0,0,0
1681,507,517,744.0,1,0,0,0,0,0,0,0,0,0
1682,521,519,744.0,1,0,0,0,0,0,0,0,0,0
1683,541,519,744.0,1,0,0,0,0,0,0,0,0,0
1684,548,519,744.0,1,0,0,0,0,0,0,0,0,0
1685,542,518,744.0,1,0,0,0,0,0,0,0,0,0
1686,531,516,744.0,1,0,0,0,0,0,0,0,0,0
1687,524,511,744.0,1,0,0,0,0,0,0,0,0,0
1688,523,509,744.0,1,0,0,0,0,0,0,0,0,0
1689,518,509,744.0,1,0,0,0,0,0,0,0,0,0
1690,525,508,744.0,1,0,0,0,0,0,0,0,0,0
1691,546,505,744.0,1,0,0,0,0,0,0,0,0,0
1692,563,504,744.0,1,0,0,0,0,0,0,0,0,0
1693,569,503,745.0,1,0,0,0,0,0,0,0,0,0
1694,555,501,745.0,1,0,0,0,0,0,0,0,0,0
1695,535,505,745.0,1,0,0,0,0,0,0,0,0,0
1696,520,504,745.0,1,0,0,0,0,0,0,0,0,0
1697,517,505,744.0,1,0,0,0,0,0,0,0,0,0
1698,528,507,744.0,1,0,0,0,0,0,0,0,0,0
1699,547,506,744.0,1,0,0,0,0,0,0,0,0,0
1700,554,505,744.0,1,0,0,0,0,0,0,0,0,0
1701,548,506,744.0,1,0,0,0,0,0,0,0,0,0
1702,553,511,745.0,1,0,0,0,0,0,0,0,0,0
1703,555,514,744.0,1,0,0,0,0,0,0,0,0,0
1704,541,517,745.0,1,0,0,0,0,0,0,0,0,0
1705,520,513,744.0,1,0,0,0,0,0,0,0,0,0
1706,501,510,744.0,1,0,0,0,0,0,0,0,0,0
1707,490,517,744.0,1,0,0,0,0,0,0,0,0,0
1708,489,521,744.0,1,0,0,0,0,0,0,0,0,0
1709,499,520,744.0,1,0,0,0,0,0,0,0,0,0
1710,506,519,744.0,1,0,0,0,0,0,0,0,0,0
1711,494,521,744.0,1,0,0,0,0,0,0,0,0,0
1712,467,524,744.0,1,0,0,0,0,0,0,0,0,0
1713,445,525,744.0,1,0,0,0,0,0,0,0,0,0
1714,441,523,744.0,1,0,0,0,0,0,0,0,0,0
1715,457,524,744.0,1,0,0,0,0,0,0,0,0,0
1716,465,522,744.0,1,0,0,0,0,0,0,0,0,0
1717,465,521,744.0,1,0,0,0,0,0,0,0,0,0
1718,474,523,744.0,1,0,0,0,0,0,0,0,0,0
1719,487,529,744.0,1,0,0,0,0,0,0,0,0,0
1720,492,529,744.0,1,0,0,0,0,0,0,0,0,0
1721,488,522,744.0,1,0,0,0,0,0,0,0,0,0
1722,473,519,744.0,1,0,0,0,0,0,0,0,0,0
1723,458,519,744.0,1,0,0,0,0,0,0,0,0,0
1724,460,520,744.0,1,0,0,0,0,0,0,0,0,0
1725,474,519,744.0,1,0,0,0,0,0,0,0,0,0
1726,497,512,744.0,1,0,0,0,0,0,0,0,0,0
1727,530,514,744.0,1,0,0,0,0,0,0,0,0,0
1728,545,517,744.0,1,0,0,0,0,0,0,0,0,0
1729,543,517,744.0,1,0,0,0,0,0,0,0,0,0
1730,511,516,744.0,1,0,0,0,0,0,0,0,0,0
1731,456,520,744.0,1,0,0,0,0,0,0,0,0,0
1732,425,518,744.0,1,0,0,0,0,0,0,0,0,0
1733,436,512,744.0,1,0,0,0,0,0,0,0,0,0
1734,458,514,744.0,1,0,0,0,0,0,0,0,0,0
1735,480,520,744.0,1,0,0,0,0,0,0,0,0,0
1736,499,521,744.0,1,0,0,0,0,0,0,0,0,0
1737,514,520,744.0,1,0,0,0,0,0,0,0,0,0
1738,515,521,744.0,1,0,0,0,0,0,0,0,0,0
1739,511,517,744.0,1,0,0,0,0,0,0,0,0,0
1740,494,519,744.0,1,0,0,0,0,0,0,0,0,0
1741,468,513,744.0,1,0,0,0,0,0,0,0,0,0
1742,460,516,744.0,1,0,0,0,0,0,0,0,0,0
1743,481,522,744.0,1,0,0,0,0,0,0,0,0,0
1744,527,522,744.0,1,0,0,0,0,0,0,0,0,0
1745,558,513,745.0,1,0,0,0,0,0,0,0,0,0
1746,564,511,744.0,1,0,0,0,0,0,0,0,0,0
1747,551,503,744.0,1,0,0,0,0,0,0,0,0,0
1748,524,504,744.0,1,0,0,0,0,0,0,0,0,0
1749,484,512,744.0,1,0,0,0,0,0,0,0,0,0
1750,469,514,744.0,1,0,0,0,0,0,0,0,0,0
1751,502,511,744.0,1,0,0,0,0,0,0,0,0,0
1752,538,512,745.0,1,0,0,0,0,0,0,0,0,0
1753,546,516,744.0,1,0,0,0,0,0,0,0,0,0
1754,530,519,744.0,1,0,0,0,0,0,0,0,0,0
1755,510,520,745.0,1,0,0,0,0,0,0,0,0,0
1756,499,513,744.0,1,0,0,0,0,0,0,0,0,0
1757,494,513,745.0,1,0,0,0,0,0,0,0,0,0
1758,488,515,744.0,1,0,0,0,0,0,0,0,0,0
1759,496,520,745.0,1,0,0,0,0,0,0,0,0,0
1760,508,520,745.0,1,0,0,0,0,0,0,0,0,0
1761,513,511,745.0,1,0,0,0,0,0,0,0,0,0
1762,503,505,745.0,1,0,0,0,0,0,0,0,0,0
1763,490,507,744.0,1,0,0,0,0,0,0,0,0,0
1764,490,514,745.0,1,0,0,0,0,0,0,0,0,0
1765,491,519,745.0,1,0,0,0,0,0,0,0,0,0
1766,497,520,744.0,1,0,0,0,0,0,0,0,0,0
1767,509,522,744.0,1,0,0,0,0,0,0,0,0,0
1768,518,518,744.0,1,0,0,0,0,0,0,0,0,0
1769,519,514,745.0,1,0,0,0,0,0,0,0,0,0
1770,512,511,744.0,1,0,0,0,0,0,0,0,0,0
1771,506,511,745.0,1,0,0,0,0,0,0,0,0,0
1772,503,514,745.0,1,0,0,0,0,0,0,0,0,0
1773,506,513,745.0,1,0,0,0,0,0,0,0,0,0
1774,506,515,745.0,1,0,0,0,0,0,0,0,0,0
1775,502,512,745.0,1,0,0,0,0,0,0,0,0,0
1776,494,510,745.0,1,0,0,0,0,0,0,0,0,0
1777,493,510,745.0,1,0,0,0,0,0,0,0,0,0
1778,495,511,745.0,1,0,0,0,0,0,0,0,0,0
1779,495,513,745.0,1,0,0,0,0,0,0,0,0,0
1780,492,515,744.0,1,0,0,0,0,0,0,0,0,0
1781,489,514,745.0,1,0,0,0,0,0,0,0,0,0
1782,482,513,745.0,1,0,0,0,0,0,0,0,0,0
1783,476,511,744.0,1,0,0,0,0,0,0,0,0,0
1784,475,510,745.0,1,0,0,0,0,0,0,0,0,0
1785,480,511,745.0,1,0,0,0,0,0,0,0,0,0
1786,497,511,745.0,1,0,0,0,0,0,0,0,0,0
1787,517,511,745.0,1,0,0,0,0,0,0,0,0,0
1788,528,512,744.0,1,0,0,0,0,0,0,0,0,0
1789,527,513,745.0,1,0,0,0,0,0,0,0,0,0
1790,519,517,745.0,1,0,0,0,0,0,0,0,0,0
1791,510,517,745.0,1,0,0,0,0,0,0,0,0,0
1792,499,516,745.0,1,0,0,0,0,0,0,0,0,0
1793,496,513,745.0,1,0,0,0,0,0,0,0,0,0
1794,501,511,745.0,1,0,0,0,0,0,0,0,0,0
1795,503,509,745.0,1,0,0,0,0,0,0,0,0,0
1796,503,507,745.0,1,0,0,0,0,0,0,0,0,0
1797,502,507,745.0,1,0,0,0,0,0,0,0,0,0
1798,501,506,745.0,1,0,0,0,0,0,0,0,0,0
1799,505,504,745.0,1,0,0,0,0,0,0,0,0,0
1800,508,506,745.0,1,0,0,0,0,0,0,0,0,0
1801,505,506,745.0,1,0,0,0,0,0,0,0,0,0
1802,501,506,745.0,1,0,0,0,0,0,0,0,0,0
1803,499,505,745.0,1,0,0,0,0,0,0,0,0,0
1804,499,506,745.0,1,0,0,0,0,0,0,0,0,0
1805,500,506,745.0,1,0,0,0,0,0,0,0,0,0
1806,501,505,745.0,1,0,0,0,0,0,0,0,0,0
1807,499,504,745.0,1,0,0,0,0,0,0,0,0,0
1808,498,504,745.0,1,0,0,0,0,0,0,0,0,0
1809,499,502,745.0,1,0,0,0,0,0,0,0,0,0
1810,502,500,745.0,1,0,0,0,0,0,0,0,0,0
1811,509,498,745.0,1,0,0,0,0,0,0,0,0,0
1812,512,498,745.0,1,0,0,0,0,0,0,0,0,0
1813,513,499,745.0,1,0,0,0,0,0,0,0,0,0
1814,513,499,745.0,1,0,0,0,0,0,0,0,0,0
1815,513,499,745.0,1,0,0,0,0,0,0,0,0,0
1816,512,502,745.0,1,0,0,0,0,0,0,0,0,0
1817,514,502,745.0,1,0,0,0,0,0,0,0,0,0
1818,516,500,745.0,1,0,0,0,0,0,0,0,0,0
1819,517,497,745.0,1,0,0,0,0,0,0,0,0,0
1820,516,494,745.0,1,0,0,0,0,0,0,0,0,0
1821,516,493,745.0,1,0,0,0,0,0,0,0,0,0
1822,516,494,745.0,1,0,0,0,0,0,0,0,0,0
1823,516,494,745.0,1,0,0,0,0,0,0,0,0,0
1824,512,492,745.0,1,0,0,0,0,0,0,0,0,0
1825,507,485,745.0,1,0,0,0,0,0,0,0,0,0
1826,503,479,745.0,1,0,0,0,0,0,0,0,0,0
1827,505,491,745.0,1,0,0,0,0,0,0,0,0,0
1828,509,504,745.0,1,0,0,0,0,0,0,0,0,0
1829,510,509,745.0,1,0,0,0,0,0,0,0,0,0
1830,508,507,745.0,1,0,0,0,0,0,0,0,0,0
1831,506,507,745.0,1,0,0,0,0,0,0,0,0,0
1832,505,506,745.0,1,0,0,0,0,0,0,0,0,0
1833,503,505,745.0,1,0,0,0,0,0,0,0,0,0
1834,501,503,745.0,1,0,0,0,0,0,0,0,0,0
1835,496,504,745.0,1,0,0,0,0,0,0,0,0,0
1836,490,504,745.0,1,0,0,0,0,0,0,0,0,0
1837,488,504,745.0,1,0,0,0,0,0,0,0,0,0
1838,492,503,745.0,1,0,0,0,0,0,0,0,0,0
1839,499,500,745.0,1,0,0,0,0,0,0,0,0,0
1840,507,498,745.0,1,0,0,0,0,0,0,0,0,0
1841,510,497,745.0,1,0,0,0,0,0,0,0,0,0
1842,505,498,745.0,1,0,0,0,0,0,0,0,0,0
1843,505,502,745.0,1,0,0,0,0,0,0,0,0,0
1844,509,505,745.0,1,0,0,0,0,0,0,0,0,0
1845,511,505,745.0,1,0,0,0,0,0,0,0,0,0
1846,505,503,745.0,1,0,0,0,0,0,0,0,0,0
1847,495,505,745.0,1,0,0,0,0,0,0,0,0,0
1848,490,508,745.0,1,0,0,0,0,0,0,0,0,0
1849,489,510,745.0,1,0,0,0,0,0,0,0,0,0
1850,497,509,745.0,1,0,0,0,0,0,0,0,0,0
1851,507,507,745.0,1,0,0,0,0,0,0,0,0,0
1852,518,502,745.0,1,0,0,0,0,0,0,0,0,0
1853,536,493,745.0,1,0,0,0,0,0,0,0,0,0
1854,567,484,745.0,1,0,0,0,0,0,0,0,0,0
1855,602,476,745.0,1,0,0,0,0,0,0,0,0,0
1856,640,474,745.0,1,0,0,0,0,0,0,0,0,0
1857,670,475,745.0,1,0,0,0,0,0,0,0,0,0
1858,656,483,745.0,1,0,0,0,0,0,0,0,0,0
1859,626,493,745.0,1,0,0,0,0,0,0,0,0,0
1860,594,503,745.0,1,0,0,0,0,0,0,0,0,0
1861,564,509,745.0,1,0,0,0,0,0,0,0,0,0
1862,544,513,745.0,1,0,0,0,0,0,0,0,0,0
1863,521,513,745.0,1,0,0,0,0,0,0,0,0,0
1864,505,507,745.0,1,0,0,0,0,0,0,0,0,0
1865,498,502,745.0,1,0,0,0,0,0,0,0,0,0
1866,487,505,745.0,1,0,0,0,0,0,0,0,0,0
1867,478,515,745.0,1,0,0,0,0,0,0,0,0,0
1868,476,517,745.0,1,0,0,0,0,0,0,0,0,0
1869,476,512,745.0,1,0,0,0,0,0,0,0,0,0
1870,479,510,745.0,1,0,0,0,0,0,0,0,0,0
1871,479,517,745.0,1,0,0,0,0,0,0,0,0,0
1872,477,519,745.0,1,0,0,0,0,0,0,0,0,0
1873,474,516,745.0,1,0,0,0,0,0,0,0,0,0
1874,475,517,745.0,1,0,0,0,0,0,0,0,0,0
1875,477,519,745.0,1,0,0,0,0,0,0,0,0,0
1876,482,520,745.0,1,0,0,0,0,0,0,0,0,0
1877,487,515,745.0,1,0,0,0,0,0,0,0,0,0
1878,488,506,745.0,1,0,0,0,0,0,0,0,0,0
1879,486,504,745.0,1,0,0,0,0,0,0,0,0,0
1880,485,512,745.0,1,0,0,0,0,0,0,0,0,0
1881,486,514,745.0,1,0,0,0,0,0,0,0,0,0
1882,487,510,745.0,1,0,0,0,0,0,0,0,0,0
1883,488,507,745.0,1,0,0,0,0,0,0,0,0,0
1884,491,507,745.0,1,0,0,0,0,0,0,0,0,0
1885,493,506,745.0,1,0,0,0,0,0,0,0,0,0
1886,494,506,745.0,1,0,0,0,0,0,0,0,0,0
1887,494,509,745.0,1,0,0,0,0,0,0,0,0,0
1888,495,512,745.0,1,0,0,0,0,0,0,0,0,0
1889,497,514,745.0,1,0,0,0,0,0,0,0,0,0
1890,499,519,745.0,1,0,0,0,0,0,0,0,0,0
1891,501,518,745.0,1,0,0,0,0,0,0,0,0,0
1892,502,510,745.0,1,0,0,0,0,0,0,0,0,0
1893,503,504,745.0,1,0,0,0,0,0,0,0,0,0
1894,504,502,745.0,1,0,0,0,0,0,0,0,0,0
1895,504,505,745.0,1,0,0,0,0,0,0,0,0,0
1896,507,509,745.0,1,0,0,0,0,0,0,0,0,0
1897,509,515,745.0,1,0,0,0,0,0,0,0,0,0
1898,509,517,745.0,1,0,0,0,0,0,0,0,0,0
1899,509,518,745.0,1,0,0,0,0,0,0,0,0,0
1900,511,519,745.0,1,0,0,0,0,0,0,0,0,0
1901,514,519,745.0,1,0,0,0,0,0,0,0,0,0
1902,519,516,745.0,1,0,0,0,0,0,0,0,0,0
1903,523,515,745.0,1,0,0,0,0,0,0,0,0,0
1904,523,517,745.0,1,0,0,0,0,0,0,0,0,0
1905,517,515,745.0,1,0,0,0,0,0,0,0,0,0
1906,513,514,745.0,1,0,0,0,0,0,0,0,0,0
1907,511,511,745.0,1,0,0,0,0,0,0,0,0,0
1908,511,511,745.0,1,0,0,0,0,0,0,0,0,0
1909,511,515,745.0,1,0,0,0,0,0,0,0,0,0
1910,510,517,745.0,1,0,0,0,0,0,0,0,0,0
1911,511,520,745.0,1,0,0,0,0,0,0,0,0,0
1912,514,520,745.0,1,0,0,0,0,0,0,0,0,0
1913,516,519,745.0,1,0,0,0,0,0,0,0,0,0
1914,518,519,745.0,1,0,0,0,0,0,0,0,0,0
1915,521,519,745.0,1,0,0,0,0,0,0,0,0,0
1916,524,515,745.0,1,0,0,0,0,0,0,0,0,0
1917,527,508,745.0,1,0,0,0,0,0,0,0,0,0
1918,526,507,745.0,1,0,0,0,0,0,0,0,0,0
1919,523,507,745.0,1,0,0,0,0,0,0,0,0,0
1920,527,505,745.0,1,0,0,0,0,0,0,0,0,0
1921,532,504,745.0,1,0,0,0,0,0,0,0,0,0
1922,534,504,745.0,1,0,0,0,0,0,0,0,0,0
1923,534,503,745.0,1,0,0,0,0,0,0,0,0,0
1924,539,501,745.0,1,0,0,0,0,0,0,0,0,0
1925,542,500,745.0,1,0,0,0,0,0,0,0,0,0
1926,542,499,745.0,1,0,0,0,0,0,0,0,0,0
1927,541,499,745.0,1,0,0,0,0,0,0,0,0,0
1928,543,499,745.0,1,0,0,0,0,0,0,0,0,0
1929,542,498,745.0,1,0,0,0,0,0,0,0,0,0
1930,542,500,745.0,1,0,0,0,0,0,0,0,0,0
1931,542,500,745.0,1,0,0,0,0,0,0,0,0,0
1932,541,502,745.0,1,0,0,0,0,0,0,0,0,0
1933,539,504,745.0,1,0,0,0,0,0,0,0,0,0
1934,538,505,745.0,1,0,0,0,0,0,0,0,0,0
1935,536,503,745.0,1,0,0,0,0,0,0,0,0,0
1936,528,503,745.0,1,0,0,0,0,0,0,0,0,0
1937,522,505,745.0,1,0,0,0,0,0,0,0,0,0
1938,519,506,745.0,1,0,0,0,0,0,0,0,0,0
1939,511,507,745.0,1,0,0,0,0,0,0,0,0,0
1940,509,510,745.0,1,0,0,0,0,0,0,0,0,0
1941,508,511,745.0,1,0,0,0,0,0,0,0,0,0
1942,506,512,745.0,1,0,0,0,0,0,0,0,0,0
1943,503,513,745.0,1,0,0,0,0,0,0,0,0,0
1944,499,515,745.0,1,0,0,0,0,0,0,0,0,0
1945,493,517,745.0,1,0,0,0,0,0,0,0,0,0
1946,488,517,745.0,1,0,0,0,0,0,0,0,0,0
1947,484,517,745.0,1,0,0,0,0,0,0,0,0,0
1948,484,517,745.0,1,0,0,0,0,0,0,0,0,0
1949,484,517,745.0,1,0,0,0,0,0,0,0,0,0
1950,480,514,745.0,1,0,0,0,0,0,0,0,0,0
1951,478,513,745.0,1,0,0,0,0,0,0,0,0,0
1952,478,507,745.0,1,0,0,0,0,0,0,0,0,0
1953,479,502,745.0,1,0,0,0,0,0,0,0,0,0
1954,479,514,745.0,1,0,0,0,0,0,0,0,0,0
1955,481,518,745.0,1,0,0,0,0,0,0,0,0,0
1956,484,518,745.0,1,0,0,0,0,0,0,0,0,0
1957,485,516,745.0,1,0,0,0,0,0,0,0,0,0
1958,484,516,745.0,1,0,0,0,0,0,0,0,0,0
1959,485,514,745.0,1,0,0,0,0,0,0,0,0,0
1960,486,509,745.0,1,0,0,0,0,0,0,0,0,0
1961,485,512,745.0,1,0,0,0,0,0,0,0,0,0
1962,486,520,745.0,1,0,0,0,0,0,0,0,0,0
1963,486,517,745.0,1,0,0,0,0,0,0,0,0,0
1964,487,514,745.0,1,0,0,0,0,0,0,0,0,0
1965,491,510,745.0,1,0,0,0,0,0,0,0,0,0
1966,491,510,745.0,1,0,0,0,0,0,0,0,0,0
1967,491,514,745.0,1,0,0,0,0,0,0,0,0,0
1968,492,513,745.0,1,0,0,0,0,0,0,0,0,0
1969,494,511,745.0,1,0,0,0,0,0,0,0,0,0
1970,494,510,745.0,1,0,0,0,0,0,0,0,0,0
1971,496,508,745.0,1,0,0,0,0,0,0,0,0,0
1972,497,507,745.0,1,0,0,0,0,0,0,0,0,0
1973,496,506,745.0,1,0,0,0,0,0,0,0,0,0
1974,495,506,745.0,1,0,0,0,0,0,0,0,0,0
1975,500,502,745.0,1,0,0,0,0,0,0,0,0,0
1976,503,495,745.0,1,0,0,0,0,0,0,0,0,0
1977,505,496,745.0,1,0,0,0,0,0,0,0,0,0
1978,504,499,745.0,1,0,0,0,0,0,0,0,0,0
1979,503,503,745.0,1,0,0,0,0,0,0,0,0,0
1980,500,507,745.0,1,0,0,0,0,0,0,0,0,0
1981,502,506,745.0,1,0,0,0,0,0,0,0,0,0
1982,507,510,745.0,1,0,0,0,0,0,0,0,0,0
1983,510,512,745.0,1,0,0,0,0,0,0,0,0,0
1984,510,507,745.0,1,0,0,0,0,0,0,0,0,0
1985,509,508,745.0,1,0,0,0,0,0,0,0,0,0
1986,509,508,745.0,1,0,0,0,0,0,0,0,0,0
1987,509,506,745.0,1,0,0,0,0,0,0,0,0,0
1988,508,503,745.0,1,0,0,0,0,0,0,0,0,0
1989,508,507,745.0,1,0,0,0,0,0,0,0,0,0
1990,508,508,745.0,1,0,0,0,0,0,0,0,0,0
1991,510,509,745.0,1,0,0,0,0,0,0,0,0,0
1992,508,506,745.0,1,0,0,0,0,0,0,0,0,0
1993,506,504,745.0,1,0,0,0,0,0,0,0,0,0
1994,508,504,745.0,1,0,0,0,0,0,0,0,0,0
1995,509,504,745.0,1,0,0,0,0,0,0,0,0,0
1996,509,505,745.0,1,0,0,0,0,0,0,0,0,0
1997,512,505,745.0,1,0,0,0,0,0,0,0,0,0
1998,512,503,745.0,1,0,0,0,0,0,0,0,0,0
1999,511,501,745.0,1,0,0,0,0,0,0,0,0,0
2000,506,499,745.0,1,0,0,0,0,0,0,0,0,0
2001,502,496,745.0,1,0,0,0,0,0,0,0,0,0
2002,503,498,745.0,1,0,0,0,0,0,0,0,0,0
2003,504,495,745.0,1,0,0,0,0,0,0,0,0,0
2004,510,497,745.0,1,0,0,0,0,0,0,0,0,0
2005,510,506,745.0,1,0,0,0,0,0,0,0,0,0
2006,508,507,745.0,1,0,0,0,0,0,0,0,0,0
2007,509,508,745.0,1,0,0,0,0,0,0,0,0,0
2008,510,507,745.0,1,0,0,0,0,0,0,0,0,0
2009,506,508,745.0,1,0,0,0,0,0,0,0,0,0
2010,504,509,745.0,1,0,0,0,0,0,0,0,0,0
2011,508,509,745.0,1,0,0,0,0,0,0,0,0,0
2012,509,506,745.0,1,0,0,0,0,0,0,0,0,0
2013,511,503,745.0,1,0,0,0,0,0,0,0,0,0
2014,510,504,745.0,1,0,0,0,0,0,0,0,0,0
2015,510,505,745.0,1,0,0,0,0,0,0,0,0,0
2016,506,510,745.0,1,0,0,0,0,0,0,0,0,0
2017,505,513,745.0,1,0,0,0,0,0,0,0,0,0
2018,505,514,745.0,1,0,0,0,0,0,0,0,0,0
2019,503,510,745.0,1,0,0,0,0,0,0,0,0,0
2020,504,510,745.0,1,0,0,0,0,0,0,0,0,0
2021,507,510,745.0,1,0,0,0,0,0,0,0,0,0
2022,510,511,745.0,1,0,0,0,0,0,0,0,0,0
2023,514,510,745.0,1,0,0,0,0,0,0,0,0,0
2024,515,512,745.0,1,0,0,0,0,0,0,0,0,0
2025,514,512,745.0,1,0,0,0,0,0,0,0,0,0
2026,511,505,745.0,1,0,0,0,0,0,0,0,0,0
2027,506,505,745.0,1,0,0,0,0,0,0,0,0,0
2028,499,509,745.0,1,0,0,0,0,0,0,0,0,0
2029,497,514,745.0,1,0,0,0,0,0,0,0,0,0
2030,497,513,745.0,1,0,0,0,0,0,0,0,0,0
2031,501,515,745.0,1,0,0,0,0,0,0,0,0,0
2032,506,514,745.0,1,0,0,0,0,0,0,0,0,0
2033,496,507,745.0,1,0,0,0,0,0,0,0,0,0
2034,493,505,745.0,1,0,0,0,0,0,0,0,0,0
2035,501,511,745.0,1,0,0,0,0,0,0,0,0,0
2036,515,510,745.0,1,0,0,0,0,0,0,0,0,0
2037,524,502,745.0,1,0,0,0,0,0,0,0,0,0
2038,526,504,745.0,1,0,0,0,0,0,0,0,0,0
2039,524,507,745.0,1,0,0,0,0,0,0,0,0,0
2040,522,506,745.0,1,0,0,0,0,0,0,0,0,0
2041,521,508,745.0,1,0,0,0,0,0,0,0,0,0
2042,519,506,745.0,1,0,0,0,0,0,0,0,0,0
2043,520,502,745.0,1,0,0,0,0,0,0,0,0,0
2044,522,505,745.0,1,0,0,0,0,0,0,0,0,0
2045,524,510,745.0,1,0,0,0,0,0,0,0,0,0
2046,524,510,745.0,1,0,0,0,0,0,0,0,0,0
2047,522,509,745.0,1,0,0,0,0,0,0,0,0,0
2048,518,506,745.0,1,0,0,0,0,0,0,0,0,0
2049,515,504,745.0,1,0,0,0,0,0,0,0,0,0
2050,516,511,746.0,1,0,0,0,0,0,0,0,0,0
2051,514,513,745.0,1,0,0,0,0,0,0,0,0,0
2052,512,513,745.0,1,0,0,0,0,0,0,0,0,0
2053,509,512,746.0,1,0,0,0,0,0,0,0,0,0
2054,507,505,746.0,1,0,0,0,0,0,0,0,0,0
2055,505,498,746.0,1,0,0,0,0,0,0,0,0,0
2056,500,514,746.0,1,0,0,0,0,0,0,0,0,0
2057,493,518,746.0,1,0,0,0,0,0,0,0,0,0
2058,485,516,745.0,1,0,0,0,0,0,0,0,0,0
2059,490,514,745.0,1,0,0,0,0,0,0,0,0,0
2060,500,516,746.0,1,0,0,0,0,0,0,0,0,0
2061,510,514,745.0,1,0,0,0,0,0,0,0,0,0
2062,511,513,745.0,1,0,0,0,0,0,0,0,0,0
2063,508,507,746.0,1,0,0,0,0,0,0,0,0,0
2064,506,514,746.0,1,0,0,0,0,0,0,0,0,0
2065,507,516,746.0,1,0,0,0,0,0,0,0,0,0
2066,507,518,745.0,1,0,0,0,0,0,0,0,0,0
2067,506,522,745.0,1,0,0,0,0,0,0,0,0,0
2068,503,520,746.0,1,0,0,0,0,0,0,0,0,0
2069,500,513,746.0,1,0,0,0,0,0,0,0,0,0
2070,496,512,746.0,1,0,0,0,0,0,0,0,0,0
2071,495,509,746.0,1,0,0,0,0,0,0,0,0,0
2072,499,511,745.0,1,0,0,0,0,0,0,0,0,0
2073,502,511,745.0,1,0,0,0,0,0,0,0,0,0
2074,501,517,746.0,1,0,0,0,0,0,0,0,0,0
2075,497,521,746.0,1,0,0,0,0,0,0,0,0,0
2076,499,520,746.0,1,0,0,0,0,0,0,0,0,0
2077,508,507,746.0,1,0,0,0,0,0,0,0,0,0
2078,517,500,746.0,1,0,0,0,0,0,0,0,0,0
2079,522,492,746.0,1,0,0,0,0,0,0,0,0,0
2080,541,478,746.0,1,0,0,0,0,0,0,0,0,0
2081,573,496,746.0,1,0,0,0,0,0,0,0,0,0
2082,613,494,746.0,1,0,0,0,0,0,0,0,0,0
2083,653,487,746.0,1,0,0,0,0,0,0,0,0,0
2084,653,487,746.0,1,0,0,0,0,0,0,0,0,0
2085,631,491,746.0,1,0,0,0,0,0,0,0,0,0
2086,605,501,746.0,1,0,0,0,0,0,0,0,0,0
2087,580,511,746.0,1,0,0,0,0,0,0,0,0,0
2088,557,516,746.0,1,0,0,0,0,0,0,0,0,0
2089,531,512,746.0,1,0,0,0,0,0,0,0,0,0
2090,508,510,746.0,1,0,0,0,0,0,0,0,0,0
2091,494,511,746.0,1,0,0,0,0,0,0,0,0,0
2092,485,515,746.0,1,0,0,0,0,0,0,0,0,0
2093,476,508,746.0,1,0,0,0,0,0,0,0,0,0
2094,472,514,746.0,1,0,0,0,0,0,0,0,0,0
2095,470,519,746.0,1,0,0,0,0,0,0,0,0,0
2096,469,514,746.0,1,0,0,0,0,0,0,0,0,0
2097,469,521,746.0,1,0,0,0,0,0,0,0,0,0
2098,472,520,746.0,1,0,0,0,0,0,0,0,0,0
2099,473,507,746.0,1,0,0,0,0,0,0,0,0,0
2100,477,496,746.0,1,0,0,0,0,0,0,0,0,0
2101,479,510,746.0,1,0,0,0,0,0,0,0,0,0
2102,484,522,746.0,1,0,0,0,0,0,0,0,0,0
2103,487,516,746.0,1,0,0,0,0,0,0,0,0,0
2104,488,510,746.0,1,0,0,0,0,0,0,0,0,0
2105,486,516,746.0,1,0,0,0,0,0,0,0,0,0
2106,482,514,746.0,1,0,0,0,0,0,0,0,0,0
2107,482,507,746.0,1,0,0,0,0,0,0,0,0,0
2108,487,498,746.0,1,0,0,0,0,0,0,0,0,0
2109,490,496,746.0,1,0,0,0,0,0,0,0,0,0
2110,493,496,746.0,1,0,0,0,0,0,0,0,0,0
2111,495,499,746.0,1,0,0,0,0,0,0,0,0,0
2112,496,533,746.0,1,0,0,0,0,0,0,0,0,0
2113,497,531,746.0,1,0,0,0,0,0,0,0,0,0
2114,498,522,746.0,1,0,0,0,0,0,0,0,0,0
2115,500,513,746.0,1,0,0,0,0,0,0,0,0,0
2116,499,507,746.0,1,0,0,0,0,0,0,0,0,0
2117,501,502,746.0,1,0,0,0,0,0,0,0,0,0
2118,503,499,746.0,1,0,0,0,0,0,0,0,0,0
2119,503,510,746.0,1,0,0,0,0,0,0,0,0,0
2120,503,517,746.0,1,0,0,0,0,0,0,0,0,0
2121,505,511,746.0,1,0,0,0,0,0,0,0,0,0
2122,506,496,746.0,1,0,0,0,0,0,0,0,0,0
2123,507,493,746.0,1,0,0,0,0,0,0,0,0,0
2124,507,506,746.0,1,0,0,0,0,0,0,0,0,0
2125,507,500,746.0,1,0,0,0,0,0,0,0,0,0
2126,506,501,746.0,1,0,0,0,0,0,0,0,0,0
2127,506,506,746.0,1,0,0,0,0,0,0,0,0,0
2128,506,516,746.0,1,0,0,0,0,0,0,0,0,0
2129,509,519,746.0,1,0,0,0,0,0,0,0,0,0
2130,511,510,746.0,1,0,0,0,0,0,0,0,0,0
2131,509,499,746.0,1,0,0,0,0,0,0,0,0,0
2132,512,480,746.0,1,0,0,0,0,0,0,0,0,0
2133,514,485,746.0,1,0,0,0,0,0,0,0,0,0
2134,515,503,746.0,1,0,0,0,0,0,0,0,0,0
2135,516,517,746.0,1,0,0,0,0,0,0,0,0,0
2136,517,515,746.0,1,0,0,0,0,0,0,0,0,0
2137,520,497,746.0,1,0,0,0,0,0,0,0,0,0
2138,521,487,746.0,1,0,0,0,0,0,0,0,0,0
2139,521,511,746.0,1,0,0,0,0,0,0,0,0,0
2140,521,510,746.0,1,0,0,0,0,0,0,0,0,0
2141,521,495,746.0,1,0,0,0,0,0,0,0,0,0
2142,523,505,746.0,1,0,0,0,0,0,0,0,0,0
2143,524,514,746.0,1,0,0,0,0,0,0,0,0,0
2144,525,505,746.0,1,0,0,0,0,0,0,0,0,0
2145,528,500,746.0,1,0,0,0,0,0,0,0,0,0
2146,531,507,746.0,1,0,0,0,0,0,0,0,0,0
2147,532,510,746.0,1,0,0,0,0,0,0,0,0,0
2148,533,499,746.0,1,0,0,0,0,0,0,0,0,0
2149,533,497,746.0,1,0,0,0,0,0,0,0,0,0
2150,535,502,746.0,1,0,0,0,0,0,0,0,0,0
2151,537,497,746.0,1,0,0,0,0,0,0,0,0,0
2152,537,495,746.0,1,0,0,0,0,0,0,0,0,0
2153,538,494,746.0,1,0,0,0,0,0,0,0,0,0
2154,540,489,746.0,1,0,0,0,0,0,0,0,0,0
2155,540,487,746.0,1,0,0,0,0,0,0,0,0,0
2156,542,485,746.0,1,0,0,0,0,0,0,0,0,0
2157,542,487,746.0,1,0,0,0,0,0,0,0,0,0
2158,542,505,746.0,1,0,0,0,0,0,0,0,0,0
2159,539,516,746.0,1,0,0,0,0,0,0,0,0,0
2160,534,510,746.0,1,0,0,0,0,0,0,0,0,0
2161,530,509,746.0,1,0,0,0,0,0,0,0,0,0
2162,526,505,746.0,1,0,0,0,0,0,0,0,0,0
2163,523,514,746.0,1,0,0,0,0,0,0,0,0,0
2164,520,511,746.0,1,0,0,0,0,0,0,0,0,0
2165,515,508,746.0,1,0,0,0,0,0,0,0,0,0
2166,510,509,746.0,1,0,0,0,0,0,0,0,0,0
2167,506,506,746.0,1,0,0,0,0,0,0,0,0,0
2168,498,510,746.0,1,0,0,0,0,0,0,0,0,0
2169,490,515,746.0,1,0,0,0,0,0,0,0,0,0
2170,484,518,746.0,1,0,0,0,0,0,0,0,0,0
2171,481,520,746.0,1,0,0,0,0,0,0,0,0,0
2172,479,521,746.0,1,0,0,0,0,0,0,0,0,0
2173,478,520,746.0,1,0,0,0,0,0,0,0,0,0
2174,477,514,746.0,1,0,0,0,0,0,0,0,0,0
2175,475,504,746.0,1,0,0,0,0,0,0,0,0,0
2176,473,510,746.0,1,0,0,0,0,0,0,0,0,0
2177,473,524,746.0,1,0,0,0,0,0,0,0,0,0
2178,474,531,746.0,1,0,0,0,0,0,0,0,0,0
2179,474,530,746.0,1,0,0,0,0,0,0,0,0,0
2180,474,527,746.0,1,0,0,0,0,0,0,0,0,0
2181,475,524,746.0,1,0,0,0,0,0,0,0,0,0
2182,476,521,746.0,1,0,0,0,0,0,0,0,0,0
2183,476,516,746.0,1,0,0,0,0,0,0,0,0,0
2184,477,517,746.0,1,0,0,0,0,0,0,0,0,0
2185,480,514,746.0,1,0,0,0,0,0,0,0,0,0
2186,483,513,746.0,1,0,0,0,0,0,0,0,0,0
2187,485,518,746.0,1,0,0,0,0,0,0,0,0,0
2188,486,520,746.0,1,0,0,0,0,0,0,0,0,0
2189,484,516,746.0,1,0,0,0,0,0,0,0,0,0
2190,485,500,746.0,1,0,0,0,0,0,0,0,0,0
2191,483,500,746.0,1,0,0,0,0,0,0,0,0,0
2192,484,521,746.0,1,0,0,0,0,0,0,0,0,0
2193,488,520,746.0,1,0,0,0,0,0,0,0,0,0
2194,491,517,746.0,1,0,0,0,0,0,0,0,0,0
2195,491,520,746.0,1,0,0,0,0,0,0,0,0,0
2196,491,516,746.0,1,0,0,0,0,0,0,0,0,0
2197,492,509,746.0,1,0,0,0,0,0,0,0,0,0
2198,495,518,746.0,1,0,0,0,0,0,0,0,0,0
2199,497,516,746.0,1,0,0,0,0,0,0,0,0,0
2200,497,513,746.0,1,0,0,0,0,0,0,0,0,0
2201,496,522,746.0,1,0,0,0,0,0,0,0,0,0
2202,496,520,746.0,1,0,0,0,0,0,0,0,0,0
2203,497,517,746.0,1,0,0,0,0,0,0,0,0,0
2204,499,516,746.0,1,0,0,0,0,0,0,0,0,0
2205,499,512,746.0,1,0,0,0,0,0,0,0,0,0
2206,500,512,746.0,1,0,0,0,0,0,0,0,0,0
2207,502,512,746.0,1,0,0,0,0,0,0,0,0,0
2208,502,511,746.0,1,0,0,0,0,0,0,0,0,0
2209,502,511,746.0,1,0,0,0,0,0,0,0,0,0
2210,504,513,746.0,1,0,0,0,0,0,0,0,0,0
2211,505,514,746.0,1,0,0,0,0,0,0,0,0,0
2212,504,511,746.0,1,0,0,0,0,0,0,0,0,0
2213,503,510,746.0,1,0,0,0,0,0,0,0,0,0
2214,503,508,746.0,1,0,0,0,0,0,0,0,0,0
2215,503,510,746.0,1,0,0,0,0,0,0,0,0,0
2216,504,507,746.0,1,0,0,0,0,0,0,0,0,0
2217,505,510,746.0,1,0,0,0,0,0,0,0,0,0
2218,505,510,746.0,1,0,0,0,0,0,0,0,0,0
2219,505,514,746.0,1,0,0,0,0,0,0,0,0,0
2220,505,509,746.0,1,0,0,0,0,0,0,0,0,0
2221,505,512,746.0,1,0,0,0,0,0,0,0,0,0
2222,505,520,746.0,1,0,0,0,0,0,0,0,0,0
2223,506,518,746.0,1,0,0,0,0,0,0,0,0,0
2224,508,513,746.0,1,0,0,0,0,0,0,0,0,0
2225,507,512,746.0,1,0,0,0,0,0,0,0,0,0
2226,505,500,746.0,1,0,0,0,0,0,0,0,0,0
2227,504,512,746.0,1,0,0,0,0,0,0,0,0,0
2228,504,527,746.0,1,0,0,0,0,0,0,0,0,0
2229,504,528,746.0,1,0,0,0,0,0,0,0,0,0
2230,505,526,746.0,1,0,0,0,0,0,0,0,0,0
2231,505,527,746.0,1,0,0,0,0,0,0,0,0,0
2232,505,528,746.0,1,0,0,0,0,0,0,0,0,0
2233,505,526,746.0,1,0,0,0,0,0,0,0,0,0
2234,506,522,746.0,1,0,0,0,0,0,0,0,0,0
2235,506,520,746.0,1,0,0,0,0,0,0,0,0,0
2236,506,518,746.0,1,0,0,0,0,0,0,0,0,0
2237,506,516,746.0,1,0,0,0,0,0,0,0,0,0
2238,506,515,746.0,1,0,0,0,0,0,0,0,0,0
2239,506,513,746.0,1,0,0,0,0,0,0,0,0,0
2240,505,512,746.0,1,0,0,0,0,0,0,0,0,0
2241,505,512,746.0,1,0,0,0,0,0,0,0,0,0
2242,506,514,746.0,1,0,0,0,0,0,0,0,0,0
2243,506,510,746.0,1,0,0,0,0,0,0,0,0,0
2244,507,512,746.0,1,0,0,0,0,0,0,0,0,0
2245,507,512,746.0,1,0,0,0,0,0,0,0,0,0
2246,508,509,746.0,1,0,0,0,0,0,0,0,0,0
2247,507,514,746.0,1,0,0,0,0,0,0,0,0,0
2248,507,514,746.0,1,0,0,0,0,0,0,0,0,0
2249,507,517,746.0,1,0,0,0,0,0,0,0,0,0
2250,507,515,746.0,1,0,0,0,0,0,0,0,0,0
2251,507,510,746.0,1,0,0,0,0,0,0,0,0,0
2252,507,511,746.0,1,0,0,0,0,0,0,0,0,0
2253,507,517,746.0,1,0,0,0,0,0,0,0,0,0
2254,508,517,746.0,1,0,0,0,0,0,0,0,0,0
2255,508,514,746.0,1,0,0,0,0,0,0,0,0,0
2256,508,513,746.0,1,0,0,0,0,0,0,0,0,0
2257,508,513,746.0,1,0,0,0,0,0,0,0,0,0
2258,507,514,746.0,1,0,0,0,0,0,0,0,0,0
2259,507,512,746.0,1,0,0,0,0,0,0,0,0,0
2260,507,515,746.0,1,0,0,0,0,0,0,0,0,0
2261,507,516,746.0,1,0,0,0,0,0,0,0,0,0
2262,507,514,746.0,1,0,0,0,0,0,0,0,0,0
2263,507,513,746.0,1,0,0,0,0,0,0,0,0,0
2264,508,513,746.0,1,0,0,0,0,0,0,0,0,0
2265,509,512,746.0,1,0,0,0,0,0,0,0,0,0
2266,509,511,746.0,1,0,0,0,0,0,0,0,0,0
2267,509,510,746.0,1,0,0,0,0,0,0,0,0,0
2268,508,509,746.0,1,0,0,0,0,0,0,0,0,0
2269,508,509,746.0,1,0,0,0,0,0,0,0,0,0
2270,509,513,746.0,1,0,0,0,0,0,0,0,0,0
2271,511,510,746.0,1,0,0,0,0,0,0,0,0,0
2272,512,504,746.0,1,0,0,0,0,0,0,0,0,0
2273,512,505,746.0,1,0,0,0,0,0,0,0,0,0
2274,512,517,746.0,1,0,0,0,0,0,0,0,0,0
2275,513,513,746.0,1,0,0,0,0,0,0,0,0,0
2276,515,515,746.0,1,0,0,0,0,0,0,0,0,0
2277,516,511,746.0,1,0,0,0,0,0,0,0,0,0
2278,518,510,746.0,1,0,0,0,0,0,0,0,0,0
2279,521,511,746.0,1,0,0,0,0,0,0,0,0,0
2280,523,513,746.0,1,0,0,0,0,0,0,0,0,0
2281,524,514,746.0,1,0,0,0,0,0,0,0,0,0
2282,524,510,746.0,1,0,0,0,0,0,0,0,0,0
2283,523,509,746.0,1,0,0,0,0,0,0,0,0,0
2284,521,512,746.0,1,0,0,0,0,0,0,0,0,0
2285,518,515,746.0,1,0,0,0,0,0,0,0,0,0
2286,516,513,746.0,1,0,0,0,0,0,0,0,0,0
2287,515,510,746.0,1,0,0,0,0,0,0,0,0,0
2288,515,507,746.0,1,0,0,0,0,0,0,0,0,0
2289,513,504,746.0,1,0,0,0,0,0,0,0,0,0
2290,511,503,746.0,1,0,0,0,0,0,0,0,0,0
2291,509,514,746.0,1,0,0,0,0,0,0,0,0,0
2292,506,520,746.0,1,0,0,0,0,0,0,0,0,0
2293,505,519,746.0,1,0,0,0,0,0,0,0,0,0
2294,504,516,746.0,1,0,0,0,0,0,0,0,0,0
2295,504,513,746.0,1,0,0,0,0,0,0,0,0,0
2296,504,509,746.0,1,0,0,0,0,0,0,0,0,0
2297,503,505,746.0,1,0,0,0,0,0,0,0,0,0
2298,503,507,746.0,1,0,0,0,0,0,0,0,0,0
2299,504,507,746.0,1,0,0,0,0,0,0,0,0,0
2300,504,510,746.0,1,0,0,0,0,0,0,0,0,0
2301,504,512,746.0,1,0,0,0,0,0,0,0,0,0
2302,505,519,746.0,1,0,0,0,0,0,0,0,0,0
2303,505,520,746.0,1,0,0,0,0,0,0,0,0,0
2304,505,518,746.0,1,0,0,0,0,0,0,0,0,0
2305,506,516,746.0,1,0,0,0,0,0,0,0,0,0
2306,506,512,746.0,1,0,0,0,0,0,0,0,0,0
2307,505,512,746.0,1,0,0,0,0,0,0,0,0,0
2308,503,509,746.0,1,0,0,0,0,0,0,0,0,0
2309,498,512,746.0,1,0,0,0,0,0,0,0,0,0
2310,494,513,746.0,1,0,0,0,0,0,0,0,0,0
2311,497,512,746.0,1,0,0,0,0,0,0,0,0,0
2312,506,511,746.0,1,0,0,0,0,0,0,0,0,0
2313,515,506,746.0,1,0,0,0,0,0,0,0,0,0
2314,527,500,746.0,1,0,0,0,0,0,0,0,0,0
2315,552,493,746.0,1,0,0,0,0,0,0,0,0,0
2316,588,486,746.0,1,0,0,0,0,0,0,0,0,0
2317,633,481,746.0,1,0,0,0,0,0,0,0,0,0
2318,670,477,746.0,1,0,0,0,0,0,0,0,0,0
2319,663,479,746.0,1,0,0,0,0,0,0,0,0,0
2320,638,491,746.0,1,0,0,0,0,0,0,0,0,0
2321,605,504,746.0,1,0,0,0,0,0,0,0,0,0
2322,574,512,746.0,1,0,0,0,0,0,0,0,0,0
2323,546,517,746.0,1,0,0,0,0,0,0,0,0,0
2324,517,520,746.0,1,0,0,0,0,0,0,0,0,0
2325,496,520,746.0,1,0,0,0,0,0,0,0,0,0
2326,484,519,746.0,1,0,0,0,0,0,0,0,0,0
2327,477,519,746.0,1,0,0,0,0,0,0,0,0,0
2328,472,516,746.0,1,0,0,0,0,0,0,0,0,0
2329,471,514,746.0,1,0,0,0,0,0,0,0,0,0
2330,471,514,746.0,1,0,0,0,0,0,0,0,0,0
2331,472,513,746.0,1,0,0,0,0,0,0,0,0,0
2332,472,514,746.0,1,0,0,0,0,0,0,0,0,0
2333,473,515,746.0,1,0,0,0,0,0,0,0,0,0
2334,474,516,746.0,1,0,0,0,0,0,0,0,0,0
2335,475,515,746.0,1,0,0,0,0,0,0,0,0,0
2336,477,513,746.0,1,0,0,0,0,0,0,0,0,0
2337,478,513,746.0,1,0,0,0,0,0,0,0,0,0
2338,480,513,746.0,1,0,0,0,0,0,0,0,0,0
2339,481,513,746.0,1,0,0,0,0,0,0,0,0,0
2340,482,513,746.0,1,0,0,0,0,0,0,0,0,0
2341,483,513,746.0,1,0,0,0,0,0,0,0,0,0
2342,485,512,746.0,1,0,0,0,0,0,0,0,0,0
2343,486,512,746.0,1,0,0,0,0,0,0,0,0,0
2344,488,512,746.0,1,0,0,0,0,0,0,0,0,0
2345,489,513,746.0,1,0,0,0,0,0,0,0,0,0
2346,491,511,746.0,1,0,0,0,0,0,0,0,0,0
2347,492,512,746.0,1,0,0,0,0,0,0,0,0,0
2348,494,512,746.0,1,0,0,0,0,0,0,0,0,0
2349,495,510,746.0,1,0,0,0,0,0,0,0,0,0
2350,496,511,746.0,1,0,0,0,0,0,0,0,0,0
2351,497,510,746.0,1,0,0,0,0,0,0,0,0,0
2352,498,508,746.0,1,0,0,0,0,0,0,0,0,0
2353,499,506,746.0,1,0,0,0,0,0,0,0,0,0
2354,500,506,746.0,1,0,0,0,0,0,0,0,0,0
2355,501,511,746.0,1,0,0,0,0,0,0,0,0,0
2356,501,513,746.0,1,0,0,0,0,0,0,0,0,0
2357,502,512,746.0,1,0,0,0,0,0,0,0,0,0
2358,503,510,746.0,1,0,0,0,0,0,0,0,0,0
2359,504,509,746.0,1,0,0,0,0,0,0,0,0,0
2360,504,509,746.0,1,0,0,0,0,0,0,0,0,0
2361,505,509,746.0,1,0,0,0,0,0,0,0,0,0
2362,506,508,746.0,1,0,0,0,0,0,0,0,0,0
2363,507,509,746.0,1,0,0,0,0,0,0,0,0,0
2364,509,509,746.0,1,0,0,0,0,0,0,0,0,0
2365,510,506,746.0,1,0,0,0,0,0,0,0,0,0
2366,511,506,745.0,1,0,0,0,0,0,0,0,0,0
2367,512,508,745.0,1,0,0,0,0,0,0,0,0,0
2368,513,507,746.0,1,0,0,0,0,0,0,0,0,0
2369,514,508,746.0,1,0,0,0,0,0,0,0,0,0
2370,515,511,746.0,1,0,0,0,0,0,0,0,0,0
2371,516,509,745.0,1,0,0,0,0,0,0,0,0,0
2372,517,506,745.0,1,0,0,0,0,0,0,0,0,0
2373,518,505,746.0,1,0,0,0,0,0,0,0,0,0
2374,519,505,746.0,1,0,0,0,0,0,0,0,0,0
2375,521,504,745.0,1,0,0,0,0,0,0,0,0,0
2376,522,498,745.0,1,0,0,0,0,0,0,0,0,0
2377,523,495,745.0,1,0,0,0,0,0,0,0,0,0
2378,525,501,745.0,1,0,0,0,0,0,0,0,0,0
2379,526,504,745.0,1,0,0,0,0,0,0,0,0,0
2380,527,507,745.0,1,0,0,0,0,0,0,0,0,0
2381,528,506,745.0,1,0,0,0,0,0,0,0,0,0
2382,530,505,745.0,1,0,0,0,0,0,0,0,0,0
2383,531,503,745.0,1,0,0,0,0,0,0,0,0,0
2384,533,502,745.0,1,0,0,0,0,0,0,0,0,0
2385,535,501,745.0,1,0,0,0,0,0,0,0,0,0
2386,536,500,745.0,1,0,0,0,0,0,0,0,0,0
2387,537,500,745.0,1,0,0,0,0,0,0,0,0,0
2388,537,500,745.0,1,0,0,0,0,0,0,0,0,0
2389,538,498,745.0,1,0,0,0,0,0,0,0,0,0
2390,539,499,745.0,1,0,0,0,0,0,0,0,0,0
2391,539,500,745.0,1,0,0,0,0,0,0,0,0,0
2392,539,497,745.0,1,0,0,0,0,0,0,0,0,0
2393,539,498,745.0,1,0,0,0,0,0,0,0,0,0
2394,537,500,745.0,1,0,0,0,0,0,0,0,0,0
2395,536,502,746.0,1,0,0,0,0,0,0,0,0,0
2396,534,505,745.0,1,0,0,0,0,0,0,0,0,0
2397,531,508,745.0,1,0,0,0,0,0,0,0,0,0
2398,528,508,745.0,1,0,0,0,0,0,0,0,0,0
2399,523,509,745.0,1,0,0,0,0,0,0,0,0,0
2400,518,510,745.0,1,0,0,0,0,0,0,0,0,0
2401,513,511,745.0,1,0,0,0,0,0,0,0,0,0
2402,507,512,745.0,1,0,0,0,0,0,0,0,0,0
2403,501,515,745.0,1,0,0,0,0,0,0,0,0,0
2404,497,515,745.0,1,0,0,0,0,0,0,0,0,0
2405,494,515,745.0,1,0,0,0,0,0,0,0,0,0
2406,491,516,745.0,1,0,0,0,0,0,0,0,0,0
2407,487,517,745.0,1,0,0,0,0,0,0,0,0,0
2408,484,519,745.0,1,0,0,0,0,0,0,0,0,0
2409,482,518,745.0,1,0,0,0,0,0,0,0,0,0
2410,480,517,745.0,1,0,0,0,0,0,0,0,0,0
2411,479,519,745.0,1,0,0,0,0,0,0,0,0,0
2412,479,522,745.0,1,0,0,0,0,0,0,0,0,0
2413,480,522,745.0,1,0,0,0,0,0,0,0,0,0
2414,480,523,745.0,1,0,0,0,0,0,0,0,0,0
2415,480,522,745.0,1,0,0,0,0,0,0,0,0,0
2416,480,522,745.0,1,0,0,0,0,0,0,0,0,0
2417,481,521,745.0,1,0,0,0,0,0,0,0,0,0
2418,481,519,745.0,1,0,0,0,0,0,0,0,0,0
2419,482,518,745.0,1,0,0,0,0,0,0,0,0,0
2420,483,518,745.0,1,0,0,0,0,0,0,0,0,0
2421,485,520,745.0,1,0,0,0,0,0,0,0,0,0
2422,486,520,745.0,1,0,0,0,0,0,0,0,0,0
2423,487,519,745.0,1,0,0,0,0,0,0,0,0,0
2424,488,517,745.0,1,0,0,0,0,0,0,0,0,0
2425,489,516,745.0,1,0,0,0,0,0,0,0,0,0
2426,491,516,745.0,1,0,0,0,0,0,0,0,0,0
2427,491,516,745.0,1,0,0,0,0,0,0,0,0,0
2428,493,515,745.0,1,0,0,0,0,0,0,0,0,0
2429,494,515,745.0,1,0,0,0,0,0,0,0,0,0
2430,495,515,745.0,1,0,0,0,0,0,0,0,0,0
2431,495,514,745.0,1,0,0,0,0,0,0,0,0,0
2432,496,514,745.0,1,0,0,0,0,0,0,0,0,0
2433,498,513,745.0,1,0,0,0,0,0,0,0,0,0
2434,498,512,745.0,1,0,0,0,0,0,0,0,0,0
2435,499,513,745.0,1,0,0,0,0,0,0,0,0,0
2436,500,513,745.0,1,0,0,0,0,0,0,0,0,0
2437,500,512,745.0,1,0,0,0,0,0,0,0,0,0
2438,502,513,745.0,1,0,0,0,0,0,0,0,0,0
2439,503,512,745.0,1,0,0,0,0,0,0,0,0,0
2440,504,509,745.0,1,0,0,0,0,0,0,0,0,0
2441,504,505,745.0,1,0,0,0,0,0,0,0,0,0
2442,504,500,745.0,1,0,0,0,0,0,0,0,0,0
2443,504,503,745.0,1,0,0,0,0,0,0,0,0,0
2444,504,515,745.0,1,0,0,0,0,0,0,0,0,0
2445,505,522,745.0,1,0,0,0,0,0,0,0,0,0
2446,505,520,745.0,1,0,0,0,0,0,0,0,0,0
2447,506,516,745.0,1,0,0,0,0,0,0,0,0,0
2448,506,514,745.0,1,0,0,0,0,0,0,0,0,0
2449,505,516,745.0,1,0,0,0,0,0,0,0,0,0
2450,506,513,745.0,1,0,0,0,0,0,0,0,0,0
2451,506,512,745.0,1,0,0,0,0,0,0,0,0,0
2452,506,510,745.0,1,0,0,0,0,0,0,0,0,0
2453,506,511,745.0,1,0,0,0,0,0,0,0,0,0
2454,505,513,745.0,1,0,0,0,0,0,0,0,0,0
2455,506,516,745.0,1,0,0,0,0,0,0,0,0,0
2456,506,513,745.0,1,0,0,0,0,0,0,0,0,0
2457,506,510,745.0,1,0,0,0,0,0,0,0,0,0
2458,506,510,745.0,1,0,0,0,0,0,0,0,0,0
2459,506,512,745.0,1,0,0,0,0,0,0,0,0,0
2460,506,510,745.0,1,0,0,0,0,0,0,0,0,0
2461,506,507,745.0,1,0,0,0,0,0,0,0,0,0
2462,506,511,745.0,1,0,0,0,0,0,0,0,0,0
2463,506,514,745.0,1,0,0,0,0,0,0,0,0,0
2464,506,512,745.0,1,0,0,0,0,0,0,0,0,0
2465,505,512,745.0,1,0,0,0,0,0,0,0,0,0
2466,506,513,745.0,1,0,0,0,0,0,0,0,0,0
2467,506,512,745.0,1,0,0,0,0,0,0,0,0,0
2468,507,510,745.0,1,0,0,0,0,0,0,0,0,0
2469,508,512,745.0,1,0,0,0,0,0,0,0,0,0
2470,508,513,745.0,1,0,0,0,0,0,0,0,0,0
2471,508,514,745.0,1,0,0,0,0,0,0,0,0,0
2472,509,512,745.0,1,0,0,0,0,0,0,0,0,0
2473,509,513,745.0,1,0,0,0,0,0,0,0,0,0
2474,509,515,745.0,1,0,0,0,0,0,0,0,0,0
2475,509,514,745.0,1,0,0,0,0,0,0,0,0,0
2476,509,513,745.0,1,0,0,0,0,0,0,0,0,0
2477,509,512,745.0,1,0,0,0,0,0,0,0,0,0
2478,509,511,745.0,1,0,0,0,0,0,0,0,0,0
2479,509,512,745.0,1,0,0,0,0,0,0,0,0,0
2480,509,511,745.0,1,0,0,0,0,0,0,0,0,0
2481,509,510,745.0,1,0,0,0,0,0,0,0,0,0
2482,509,509,745.0,1,0,0,0,0,0,0,0,0,0
2483,509,509,745.0,1,0,0,0,0,0,0,0,0,0
2484,510,510,745.0,1,0,0,0,0,0,0,0,0,0
2485,510,509,745.0,1,0,0,0,0,0,0,0,0,0
2486,510,507,745.0,1,0,0,0,0,0,0,0,0,0
2487,510,507,745.0,1,0,0,0,0,0,0,0,0,0
2488,510,511,745.0,1,0,0,0,0,0,0,0,0,0
2489,510,514,745.0,1,0,0,0,0,0,0,0,0,0
2490,511,510,745.0,1,0,0,0,0,0,0,0,0,0
2491,512,509,745.0,1,0,0,0,0,0,0,0,0,0
2492,512,512,745.0,1,0,0,0,0,0,0,0,0,0
2493,513,514,745.0,1,0,0,0,0,0,0,0,0,0
2494,515,511,745.0,1,0,0,0,0,0,0,0,0,0
2495,517,510,745.0,1,0,0,0,0,0,0,0,0,0
2496,518,509,745.0,1,0,0,0,0,0,0,0,0,0
2497,520,508,745.0,1,0,0,0,0,0,0,0,0,0
2498,521,508,744.0,1,0,0,0,0,0,0,0,0,0
2499,524,506,745.0,1,0,0,0,0,0,0,0,0,0
2500,525,506,745.0,1,0,0,0,0,0,0,0,0,0
2501,527,507,744.0,1,0,0,0,0,0,0,0,0,0
2502,527,506,744.0,1,0,0,0,0,0,0,0,0,0
2503,525,506,744.0,1,0,0,0,0,0,0,0,0,0
2504,523,506,744.0,1,0,0,0,0,0,0,0,0,0
2505,521,507,744.0,1,0,0,0,0,0,0,0,0,0
2506,519,507,744.0,1,0,0,0,0,0,0,0,0,0
2507,518,507,744.0,1,0,0,0,0,0,0,0,0,0
2508,517,506,744.0,1,0,0,0,0,0,0,0,0,0
2509,514,507,744.0,1,0,0,0,0,0,0,0,0,0
2510,511,508,744.0,1,0,0,0,0,0,0,0,0,0
2511,508,508,744.0,1,0,0,0,0,0,0,0,0,0
2512,507,510,744.0,1,0,0,0,0,0,0,0,0,0
2513,506,512,744.0,1,0,0,0,0,0,0,0,0,0
2514,506,511,744.0,1,0,0,0,0,0,0,0,0,0
2515,506,507,744.0,1,0,0,0,0,0,0,0,0,0
2516,506,504,744.0,1,0,0,0,0,0,0,0,0,0
2517,506,512,744.0,1,0,0,0,0,0,0,0,0,0
2518,505,514,744.0,1,0,0,0,0,0,0,0,0,0
2519,505,514,744.0,1,0,0,0,0,0,0,0,0,0
2520,506,509,744.0,1,0,0,0,0,0,0,0,0,0
2521,506,507,744.0,1,0,0,0,0,0,0,0,0,0
2522,507,510,744.0,1,0,0,0,0,0,0,0,0,0
2523,507,509,744.0,1,0,0,0,0,0,0,0,0,0
2524,508,507,744.0,1,0,0,0,0,0,0,0,0,0
2525,508,512,744.0,1,0,0,0,0,0,0,0,0,0
2526,507,513,744.0,1,0,0,0,0,0,0,0,0,0
2527,506,512,744.0,1,0,0,0,0,0,0,0,0,0
2528,503,511,744.0,1,0,0,0,0,0,0,0,0,0
2529,498,517,744.0,1,0,0,0,0,0,0,0,0,0
2530,495,517,744.0,1,0,0,0,0,0,0,0,0,0
2531,501,514,744.0,1,0,0,0,0,0,0,0,0,0
2532,512,509,744.0,1,0,0,0,0,0,0,0,0,0
2533,523,503,744.0,1,0,0,0,0,0,0,0,0,0
2534,542,496,744.0,1,0,0,0,0,0,0,0,0,0
2535,575,488,744.0,1,0,0,0,0,0,0,0,0,0
2536,619,482,744.0,1,0,0,0,0,0,0,0,0,0
2537,669,479,744.0,1,0,0,0,0,0,0,0,0,0
2538,690,481,744.0,1,0,0,0,0,0,0,0,0,0
2539,665,488,744.0,1,0,0,0,0,0,0,0,0,0
2540,629,497,744.0,1,0,0,0,0,0,0,0,0,0
2541,589,505,744.0,1,0,0,0,0,0,0,0,0,0
2542,560,510,744.0,1,0,0,0,0,0,0,0,0,0
2543,532,517,744.0,1,0,0,0,0,0,0,0,0,0
2544,504,524,744.0,1,0,0,0,0,0,0,0,0,0
2545,486,525,744.0,1,0,0,0,0,0,0,0,0,0
2546,477,523,744.0,1,0,0,0,0,0,0,0,0,0
2547,472,517,744.0,1,0,0,0,0,0,0,0,0,0
2548,470,514,744.0,1,0,0,0,0,0,0,0,0,0
2549,471,515,744.0,1,0,0,0,0,0,0,0,0,0
2550,472,517,744.0,1,0,0,0,0,0,0,0,0,0
2551,472,516,744.0,1,0,0,0,0,0,0,0,0,0
2552,473,513,744.0,1,0,0,0,0,0,0,0,0,0
2553,475,515,744.0,1,0,0,0,0,0,0,0,0,0
2554,476,514,744.0,1,0,0,0,0,0,0,0,0,0
2555,477,517,744.0,1,0,0,0,0,0,0,0,0,0
2556,479,517,744.0,1,0,0,0,0,0,0,0,0,0
2557,481,514,744.0,1,0,0,0,0,0,0,0,0,0
2558,482,512,744.0,1,0,0,0,0,0,0,0,0,0
2559,483,512,744.0,1,0,0,0,0,0,0,0,0,0
2560,485,512,744.0,1,0,0,0,0,0,0,0,0,0
2561,486,511,744.0,1,0,0,0,0,0,0,0,0,0
2562,487,510,744.0,1,0,0,0,0,0,0,0,0,0
2563,488,508,744.0,1,0,0,0,0,0,0,0,0,0
2564,489,511,744.0,1,0,0,0,0,0,0,0,0,0
2565,491,512,744.0,1,0,0,0,0,0,0,0,0,0
2566,492,513,744.0,1,0,0,0,0,0,0,0,0,0
2567,493,513,744.0,1,0,0,0,0,0,0,0,0,0
2568,495,513,744.0,1,0,0,0,0,0,0,0,0,0
2569,495,512,744.0,1,0,0,0,0,0,0,0,0,0
2570,496,510,744.0,1,0,0,0,0,0,0,0,0,0
2571,498,508,744.0,1,0,0,0,0,0,0,0,0,0
2572,500,511,744.0,1,0,0,0,0,0,0,0,0,0
2573,501,512,744.0,1,0,0,0,0,0,0,0,0,0
2574,501,512,744.0,1,0,0,0,0,0,0,0,0,0
2575,502,510,744.0,1,0,0,0,0,0,0,0,0,0
2576,503,509,744.0,1,0,0,0,0,0,0,0,0,0
2577,504,509,744.0,1,0,0,0,0,0,0,0,0,0
2578,504,510,744.0,1,0,0,0,0,0,0,0,0,0
2579,505,510,744.0,1,0,0,0,0,0,0,0,0,0
2580,506,509,744.0,1,0,0,0,0,0,0,0,0,0
2581,508,510,744.0,1,0,0,0,0,0,0,0,0,0
2582,509,511,744.0,1,0,0,0,0,0,0,0,0,0
2583,510,510,744.0,1,0,0,0,0,0,0,0,0,0
2584,511,509,744.0,1,0,0,0,0,0,0,0,0,0
2585,512,507,744.0,1,0,0,0,0,0,0,0,0,0
2586,513,505,744.0,1,0,0,0,0,0,0,0,0,0
2587,514,505,744.0,1,0,0,0,0,0,0,0,0,0
2588,514,506,744.0,1,0,0,0,0,0,0,0,0,0
2589,515,506,744.0,1,0,0,0,0,0,0,0,0,0
2590,516,504,744.0,1,0,0,0,0,0,0,0,0,0
2591,517,505,744.0,1,0,0,0,0,0,0,0,0,0
2592,518,505,744.0,1,0,0,0,0,0,0,0,0,0
2593,520,503,744.0,1,0,0,0,0,0,0,0,0,0
2594,521,502,744.0,1,0,0,0,0,0,0,0,0,0
2595,522,503,744.0,1,0,0,0,0,0,0,0,0,0
2596,523,503,744.0,1,0,0,0,0,0,0,0,0,0
2597,525,503,744.0,1,0,0,0,0,0,0,0,0,0
2598,526,505,744.0,1,0,0,0,0,0,0,0,0,0
2599,528,502,744.0,1,0,0,0,0,0,0,0,0,0
2600,529,499,744.0,1,0,0,0,0,0,0,0,0,0
2601,531,500,744.0,1,0,0,0,0,0,0,0,0,0
2602,533,504,744.0,1,0,0,0,0,0,0,0,0,0
2603,535,504,744.0,1,0,0,0,0,0,0,0,0,0
2604,536,502,744.0,1,0,0,0,0,0,0,0,0,0
2605,538,503,744.0,1,0,0,0,0,0,0,0,0,0
2606,539,502,744.0,1,0,0,0,0,0,0,0,0,0
2607,539,502,744.0,1,0,0,0,0,0,0,0,0,0
2608,539,502,744.0,1,0,0,0,0,0,0,0,0,0
2609,539,501,744.0,1,0,0,0,0,0,0,0,0,0
2610,539,500,744.0,1,0,0,0,0,0,0,0,0,0
2611,539,498,744.0,1,0,0,0,0,0,0,0,0,0
2612,538,501,744.0,1,0,0,0,0,0,0,0,0,0
2613,537,501,744.0,1,0,0,0,0,0,0,0,0,0
2614,536,505,744.0,1,0,0,0,0,0,0,0,0,0
2615,535,506,744.0,1,0,0,0,0,0,0,0,0,0
2616,532,504,744.0,1,0,0,0,0,0,0,0,0,0
2617,528,507,744.0,1,0,0,0,0,0,0,0,0,0
2618,522,507,744.0,1,0,0,0,0,0,0,0,0,0
2619,518,506,744.0,1,0,0,0,0,0,0,0,0,0
2620,513,508,744.0,1,0,0,0,0,0,0,0,0,0
2621,508,513,744.0,1,0,0,0,0,0,0,0,0,0
2622,503,513,744.0,1,0,0,0,0,0,0,0,0,0
2623,498,513,744.0,1,0,0,0,0,0,0,0,0,0
2624,493,517,744.0,1,0,0,0,0,0,0,0,0,0
2625,490,521,744.0,1,0,0,0,0,0,0,0,0,0
2626,486,522,744.0,1,0,0,0,0,0,0,0,0,0
2627,483,523,744.0,1,0,0,0,0,0,0,0,0,0
2628,481,522,744.0,1,0,0,0,0,0,0,0,0,0
2629,480,521,744.0,1,0,0,0,0,0,0,0,0,0
2630,479,522,744.0,1,0,0,0,0,0,0,0,0,0
2631,479,522,744.0,1,0,0,0,0,0,0,0,0,0
2632,479,522,744.0,1,0,0,0,0,0,0,0,0,0
2633,478,521,744.0,1,0,0,0,0,0,0,0,0,0
2634,479,522,744.0,1,0,0,0,0,0,0,0,0,0
2635,480,520,743.0,1,0,0,0,0,0,0,0,0,0
2636,480,521,744.0,1,0,0,0,0,0,0,0,0,0
2637,481,520,743.0,1,0,0,0,0,0,0,0,0,0
2638,482,520,744.0,1,0,0,0,0,0,0,0,0,0
2639,483,519,744.0,1,0,0,0,0,0,0,0,0,0
2640,484,519,744.0,1,0,0,0,0,0,0,0,0,0
2641,485,518,743.0,1,0,0,0,0,0,0,0,0,0
2642,487,517,744.0,1,0,0,0,0,0,0,0,0,0
2643,488,516,744.0,1,0,0,0,0,0,0,0,0,0
2644,489,516,744.0,1,0,0,0,0,0,0,0,0,0
2645,491,517,744.0,1,0,0,0,0,0,0,0,0,0
2646,492,517,744.0,1,0,0,0,0,0,0,0,0,0
2647,493,517,744.0,1,0,0,0,0,0,0,0,0,0
2648,494,517,744.0,1,0,0,0,0,0,0,0,0,0
2649,496,514,743.0,1,0,0,0,0,0,0,0,0,0
2650,496,512,743.0,1,0,0,0,0,0,0,0,0,0
2651,496,513,743.0,1,0,0,0,0,0,0,0,0,0
2652,497,516,744.0,1,0,0,0,0,0,0,0,0,0
2653,498,516,744.0,1,0,0,0,0,0,0,0,0,0
2654,500,515,744.0,1,0,0,0,0,0,0,0,0,0
2655,501,516,744.0,1,0,0,0,0,0,0,0,0,0
2656,502,517,743.0,1,0,0,0,0,0,0,0,0,0
2657,502,516,744.0,1,0,0,0,0,0,0,0,0,0
2658,502,515,744.0,1,0,0,0,0,0,0,0,0,0
2659,503,512,743.0,1,0,0,0,0,0,0,0,0,0
2660,503,514,743.0,1,0,0,0,0,0,0,0,0,0
2661,504,514,744.0,1,0,0,0,0,0,0,0,0,0
2662,505,512,743.0,1,0,0,0,0,0,0,0,0,0
2663,504,513,744.0,1,0,0,0,0,0,0,0,0,0
2664,504,513,744.0,1,0,0,0,0,0,0,0,0,0
2665,504,512,743.0,1,0,0,0,0,0,0,0,0,0
2666,505,511,743.0,1,0,0,0,0,0,0,0,0,0
2667,506,512,743.0,1,0,0,0,0,0,0,0,0,0
2668,506,512,743.0,1,0,0,0,0,0,0,0,0,0
2669,506,512,743.0,1,0,0,0,0,0,0,0,0,0
2670,506,512,743.0,1,0,0,0,0,0,0,0,0,0
2671,506,512,743.0,1,0,0,0,0,0,0,0,0,0
2672,506,513,743.0,1,0,0,0,0,0,0,0,0,0
2673,506,512,743.0,1,0,0,0,0,0,0,0,0,0
2674,507,511,743.0,1,0,0,0,0,0,0,0,0,0
2675,507,511,743.0,1,0,0,0,0,0,0,0,0,0
2676,507,512,743.0,1,0,0,0,0,0,0,0,0,0
2677,506,511,743.0,1,0,0,0,0,0,0,0,0,0
2678,506,509,743.0,1,0,0,0,0,0,0,0,0,0
2679,508,509,743.0,1,0,0,0,0,0,0,0,0,0
2680,508,511,743.0,1,0,0,0,0,0,0,0,0,0
2681,509,514,743.0,1,0,0,0,0,0,0,0,0,0
2682,509,517,743.0,1,0,0,0,0,0,0,0,0,0
2683,509,513,743.0,1,0,0,0,0,0,0,0,0,0
2684,509,513,743.0,1,0,0,0,0,0,0,0,0,0
2685,508,515,743.0,1,0,0,0,0,0,0,0,0,0
2686,508,514,743.0,1,0,0,0,0,0,0,0,0,0
2687,507,513,743.0,1,0,0,0,0,0,0,0,0,0
2688,507,513,743.0,1,0,0,0,0,0,0,0,0,0
2689,507,511,743.0,1,0,0,0,0,0,0,0,0,0
2690,507,509,743.0,1,0,0,0,0,0,0,0,0,0
2691,507,507,743.0,1,0,0,0,0,0,0,0,0,0
2692,507,510,743.0,1,0,0,0,0,0,0,0,0,0
2693,508,512,743.0,1,0,0,0,0,0,0,0,0,0
2694,508,513,743.0,1,0,0,0,0,0,0,0,0,0
2695,508,512,743.0,1,0,0,0,0,0,0,0,0,0
2696,509,512,743.0,1,0,0,0,0,0,0,0,0,0
2697,509,509,743.0,1,0,0,0,0,0,0,0,0,0
2698,509,509,743.0,1,0,0,0,0,0,0,0,0,0
2699,509,513,743.0,1,0,0,0,0,0,0,0,0,0
2700,509,513,743.0,1,0,0,0,0,0,0,0,0,0
2701,509,513,743.0,1,0,0,0,0,0,0,0,0,0
2702,508,512,743.0,1,0,0,0,0,0,0,0,0,0
2703,508,512,743.0,1,0,0,0,0,0,0,0,0,0
2704,509,511,743.0,1,0,0,0,0,0,0,0,0,0
2705,511,510,743.0,1,0,0,0,0,0,0,0,0,0
2706,512,508,743.0,1,0,0,0,0,0,0,0,0,0
2707,513,508,743.0,1,0,0,0,0,0,0,0,0,0
2708,515,508,743.0,1,0,0,0,0,0,0,0,0,0
2709,517,509,743.0,1,0,0,0,0,0,0,0,0,0
2710,518,509,743.0,1,0,0,0,0,0,0,0,0,0
2711,519,507,743.0,1,0,0,0,0,0,0,0,0,0
2712,521,506,743.0,1,0,0,0,0,0,0,0,0,0
2713,524,505,743.0,1,0,0,0,0,0,0,0,0,0
2714,525,506,743.0,1,0,0,0,0,0,0,0,0,0
2715,525,504,743.0,1,0,0,0,0,0,0,0,0,0
2716,524,504,743.0,1,0,0,0,0,0,0,0,0,0
2717,522,505,743.0,1,0,0,0,0,0,0,0,0,0
2718,519,506,743.0,1,0,0,0,0,0,0,0,0,0
2719,517,508,743.0,1,0,0,0,0,0,0,0,0,0
2720,517,507,743.0,1,0,0,0,0,0,0,0,0,0
2721,515,505,743.0,1,0,0,0,0,0,0,0,0,0
2722,513,507,743.0,1,0,0,0,0,0,0,0,0,0
2723,511,509,743.0,1,0,0,0,0,0,0,0,0,0
2724,509,510,743.0,1,0,0,0,0,0,0,0,0,0
2725,506,512,743.0,1,0,0,0,0,0,0,0,0,0
2726,504,513,743.0,1,0,0,0,0,0,0,0,0,0
2727,504,511,743.0,1,0,0,0,0,0,0,0,0,0
2728,504,510,743.0,1,0,0,0,0,0,0,0,0,0
2729,504,512,743.0,1,0,0,0,0,0,0,0,0,0
2730,504,513,743.0,1,0,0,0,0,0,0,0,0,0
2731,504,513,743.0,1,0,0,0,0,0,0,0,0,0
2732,503,514,743.0,1,0,0,0,0,0,0,0,0,0
2733,503,515,743.0,1,0,0,0,0,0,0,0,0,0
2734,504,514,743.0,1,0,0,0,0,0,0,0,0,0
2735,505,513,743.0,1,0,0,0,0,0,0,0,0,0
2736,506,512,743.0,1,0,0,0,0,0,0,0,0,0
2737,506,511,743.0,1,0,0,0,0,0,0,0,0,0
2738,506,511,743.0,1,0,0,0,0,0,0,0,0,0
2739,506,510,743.0,1,0,0,0,0,0,0,0,0,0
2740,506,510,743.0,1,0,0,0,0,0,0,0,0,0
2741,503,512,743.0,1,0,0,0,0,0,0,0,0,0
2742,498,514,743.0,1,0,0,0,0,0,0,0,0,0
2743,493,513,743.0,1,0,0,0,0,0,0,0,0,0
2744,496,512,743.0,1,0,0,0,0,0,0,0,0,0
2745,507,511,743.0,1,0,0,0,0,0,0,0,0,0
2746,517,506,743.0,1,0,0,0,0,0,0,0,0,0
2747,532,499,743.0,1,0,0,0,0,0,0,0,0,0
2748,559,490,743.0,1,0,0,0,0,0,0,0,0,0
2749,599,485,743.0,1,0,0,0,0,0,0,0,0,0
2750,647,482,743.0,1,0,0,0,0,0,0,0,0,0
2751,685,482,743.0,1,0,0,0,0,0,0,0,0,0
2752,675,486,743.0,1,0,0,0,0,0,0,0,0,0
2753,645,494,743.0,1,0,0,0,0,0,0,0,0,0
2754,605,506,743.0,1,0,0,0,0,0,0,0,0,0
2755,571,515,743.0,1,0,0,0,0,0,0,0,0,0
2756,541,520,743.0,1,0,0,0,0,0,0,0,0,0
2757,512,522,743.0,1,0,0,0,0,0,0,0,0,0
2758,490,522,743.0,1,0,0,0,0,0,0,0,0,0
2759,479,520,743.0,1,0,0,0,0,0,0,0,0,0
2760,473,519,743.0,1,0,0,0,0,0,0,0,0,0
2761,471,515,743.0,1,0,0,0,0,0,0,0,0,0
2762,471,512,743.0,1,0,0,0,0,0,0,0,0,0
2763,471,514,743.0,1,0,0,0,0,0,0,0,0,0
2764,472,515,743.0,1,0,0,0,0,0,0,0,0,0
2765,473,517,743.0,1,0,0,0,0,0,0,0,0,0
2766,473,515,743.0,1,0,0,0,0,0,0,0,0,0
2767,474,513,743.0,1,0,0,0,0,0,0,0,0,0
2768,475,513,743.0,1,0,0,0,0,0,0,0,0,0
2769,476,513,743.0,1,0,0,0,0,0,0,0,0,0
2770,478,514,743.0,1,0,0,0,0,0,0,0,0,0
2771,479,513,743.0,1,0,0,0,0,0,0,0,0,0
2772,481,513,743.0,1,0,0,0,0,0,0,0,0,0
2773,483,513,743.0,1,0,0,0,0,0,0,0,0,0
2774,485,511,743.0,1,0,0,0,0,0,0,0,0,0
2775,486,510,743.0,1,0,0,0,0,0,0,0,0,0
2776,488,509,743.0,1,0,0,0,0,0,0,0,0,0
2777,489,511,743.0,1,0,0,0,0,0,0,0,0,0
2778,490,511,743.0,1,0,0,0,0,0,0,0,0,0
2779,492,511,743.0,1,0,0,0,0,0,0,0,0,0
2780,493,509,743.0,1,0,0,0,0,0,0,0,0,0
2781,494,511,743.0,1,0,0,0,0,0,0,0,0,0
2782,495,512,743.0,1,0,0,0,0,0,0,0,0,0
2783,495,511,743.0,1,0,0,0,0,0,0,0,0,0
2784,497,511,743.0,1,0,0,0,0,0,0,0,0,0
2785,498,512,743.0,1,0,0,0,0,0,0,0,0,0
2786,499,513,743.0,1,0,0,0,0,0,0,0,0,0
2787,500,514,743.0,1,0,0,0,0,0,0,0,0,0
2788,501,514,743.0,1,0,0,0,0,0,0,0,0,0
2789,503,512,743.0,1,0,0,0,0,0,0,0,0,0
2790,504,511,743.0,1,0,0,0,0,0,0,0,0,0
2791,505,510,743.0,1,0,0,0,0,0,0,0,0,0
2792,506,509,743.0,1,0,0,0,0,0,0,0,0,0
2793,507,511,743.0,1,0,0,0,0,0,0,0,0,0
2794,508,509,742.0,1,0,0,0,0,0,0,0,0,0
2795,508,509,743.0,1,0,0,0,0,0,0,0,0,0
2796,509,512,743.0,1,0,0,0,0,0,0,0,0,0
2797,510,511,742.0,1,0,0,0,0,0,0,0,0,0
2798,512,508,742.0,1,0,0,0,0,0,0,0,0,0
2799,513,507,742.0,1,0,0,0,0,0,0,0,0,0
2800,514,507,742.0,1,0,0,0,0,0,0,0,0,0
2801,515,508,743.0,1,0,0,0,0,0,0,0,0,0
2802,516,507,742.0,1,0,0,0,0,0,0,0,0,0
2803,516,508,742.0,1,0,0,0,0,0,0,0,0,0
2804,517,508,742.0,1,0,0,0,0,0,0,0,0,0
2805,518,508,742.0,1,0,0,0,0,0,0,0,0,0
2806,520,508,742.0,1,0,0,0,0,0,0,0,0,0
2807,520,508,742.0,1,0,0,0,0,0,0,0,0,0
2808,522,506,742.0,1,0,0,0,0,0,0,0,0,0
2809,523,503,742.0,1,0,0,0,0,0,0,0,0,0
2810,524,503,742.0,1,0,0,0,0,0,0,0,0,0
2811,525,504,742.0,1,0,0,0,0,0,0,0,0,0
2812,526,505,742.0,1,0,0,0,0,0,0,0,0,0
2813,528,504,742.0,1,0,0,0,0,0,0,0,0,0
2814,530,504,742.0,1,0,0,0,0,0,0,0,0,0
2815,531,504,742.0,1,0,0,0,0,0,0,0,0,0
2816,532,504,742.0,1,0,0,0,0,0,0,0,0,0
2817,534,502,742.0,1,0,0,0,0,0,0,0,0,0
2818,535,501,742.0,1,0,0,0,0,0,0,0,0,0
2819,536,500,742.0,1,0,0,0,0,0,0,0,0,0
2820,536,500,742.0,1,0,0,0,0,0,0,0,0,0
2821,536,499,742.0,1,0,0,0,0,0,0,0,0,0
2822,536,501,742.0,1,0,0,0,0,0,0,0,0,0
2823,536,503,742.0,1,0,0,0,0,0,0,0,0,0
2824,536,502,742.0,1,0,0,0,0,0,0,0,0,0
2825,536,501,742.0,1,0,0,0,0,0,0,0,0,0
2826,535,502,742.0,1,0,0,0,0,0,0,0,0,0
2827,534,502,742.0,1,0,0,0,0,0,0,0,0,0
2828,533,505,742.0,1,0,0,0,0,0,0,0,0,0
2829,531,506,742.0,1,0,0,0,0,0,0,0,0,0
2830,528,507,742.0,1,0,0,0,0,0,0,0,0,0
2831,524,508,742.0,1,0,0,0,0,0,0,0,0,0
2832,519,510,742.0,1,0,0,0,0,0,0,0,0,0
2833,514,511,742.0,1,0,0,0,0,0,0,0,0,0
2834,509,512,742.0,1,0,0,0,0,0,0,0,0,0
2835,505,512,742.0,1,0,0,0,0,0,0,0,0,0
2836,500,513,742.0,1,0,0,0,0,0,0,0,0,0
2837,496,516,742.0,1,0,0,0,0,0,0,0,0,0
2838,493,517,742.0,1,0,0,0,0,0,0,0,0,0
2839,488,519,742.0,1,0,0,0,0,0,0,0,0,0
2840,485,519,742.0,1,0,0,0,0,0,0,0,0,0
2841,484,520,742.0,1,0,0,0,0,0,0,0,0,0
2842,483,520,742.0,1,0,0,0,0,0,0,0,0,0
2843,482,521,742.0,1,0,0,0,0,0,0,0,0,0
2844,481,520,742.0,1,0,0,0,0,0,0,0,0,0
2845,481,519,742.0,1,0,0,0,0,0,0,0,0,0
2846,481,520,742.0,1,0,0,0,0,0,0,0,0,0
2847,481,519,742.0,1,0,0,0,0,0,0,0,0,0
2848,482,521,742.0,1,0,0,0,0,0,0,0,0,0
2849,483,520,742.0,1,0,0,0,0,0,0,0,0,0
2850,484,517,742.0,1,0,0,0,0,0,0,0,0,0
2851,484,513,742.0,1,0,0,0,0,0,0,0,0,0
2852,485,516,742.0,1,0,0,0,0,0,0,0,0,0
2853,486,521,742.0,1,0,0,0,0,0,0,0,0,0
2854,487,521,742.0,1,0,0,0,0,0,0,0,0,0
2855,488,518,742.0,1,0,0,0,0,0,0,0,0,0
2856,489,519,742.0,1,0,0,0,0,0,0,0,0,0
2857,490,519,742.0,1,0,0,0,0,0,0,0,0,0
2858,491,517,742.0,1,0,0,0,0,0,0,0,0,0
2859,492,515,742.0,1,0,0,0,0,0,0,0,0,0
2860,493,516,742.0,1,0,0,0,0,0,0,0,0,0
2861,495,516,742.0,1,0,0,0,0,0,0,0,0,0
2862,496,516,742.0,1,0,0,0,0,0,0,0,0,0
2863,497,517,742.0,1,0,0,0,0,0,0,0,0,0
2864,497,516,742.0,1,0,0,0,0,0,0,0,0,0
2865,497,515,742.0,1,0,0,0,0,0,0,0,0,0
2866,497,513,742.0,1,0,0,0,0,0,0,0,0,0
2867,499,513,742.0,1,0,0,0,0,0,0,0,0,0
2868,500,514,742.0,1,0,0,0,0,0,0,0,0,0
2869,501,515,742.0,1,0,0,0,0,0,0,0,0,0
2870,502,515,742.0,1,0,0,0,0,0,0,0,0,0
2871,502,515,742.0,1,0,0,0,0,0,0,0,0,0
2872,503,515,742.0,1,0,0,0,0,0,0,0,0,0
2873,503,513,742.0,1,0,0,0,0,0,0,0,0,0
2874,504,513,742.0,1,0,0,0,0,0,0,0,0,0
2875,504,513,742.0,1,0,0,0,0,0,0,0,0,0
2876,505,513,742.0,1,0,0,0,0,0,0,0,0,0
2877,505,512,742.0,1,0,0,0,0,0,0,0,0,0
2878,505,511,742.0,1,0,0,0,0,0,0,0,0,0
2879,505,509,742.0,1,0,0,0,0,0,0,0,0,0
2880,506,510,742.0,1,0,0,0,0,0,0,0,0,0
2881,506,510,742.0,1,0,0,0,0,0,0,0,0,0
2882,505,511,742.0,1,0,0,0,0,0,0,0,0,0
2883,505,513,742.0,1,0,0,0,0,0,0,0,0,0
2884,505,512,742.0,1,0,0,0,0,0,0,0,0,0
2885,506,511,742.0,1,0,0,0,0,0,0,0,0,0
2886,506,512,742.0,1,0,0,0,0,0,0,0,0,0
2887,506,510,742.0,1,0,0,0,0,0,0,0,0,0
2888,506,509,742.0,1,0,0,0,0,0,0,0,0,0
2889,506,513,742.0,1,0,0,0,0,0,0,0,0,0
2890,506,513,742.0,1,0,0,0,0,0,0,0,0,0
2891,506,512,742.0,1,0,0,0,0,0,0,0,0,0
2892,506,513,742.0,1,0,0,0,0,0,0,0,0,0
2893,507,514,742.0,1,0,0,0,0,0,0,0,0,0
2894,506,513,742.0,1,0,0,0,0,0,0,0,0,0
2895,507,511,742.0,1,0,0,0,0,0,0,0,0,0
2896,506,511,742.0,1,0,0,0,0,0,0,0,0,0
2897,506,512,742.0,1,0,0,0,0,0,0,0,0,0
2898,506,512,742.0,1,0,0,0,0,0,0,0,0,0
2899,506,511,742.0,1,0,0,0,0,0,0,0,0,0
2900,507,511,742.0,1,0,0,0,0,0,0,0,0,0
2901,508,510,742.0,1,0,0,0,0,0,0,0,0,0
2902,508,510,742.0,1,0,0,0,0,0,0,0,0,0
2903,508,510,742.0,1,0,0,0,0,0,0,0,0,0
2904,507,510,742.0,1,0,0,0,0,0,0,0,0,0
2905,507,509,742.0,1,0,0,0,0,0,0,0,0,0
2906,507,508,742.0,1,0,0,0,0,0,0,0,0,0
2907,508,508,742.0,1,0,0,0,0,0,0,0,0,0
2908,508,511,742.0,1,0,0,0,0,0,0,0,0,0
2909,508,511,742.0,1,0,0,0,0,0,0,0,0,0
2910,508,512,742.0,1,0,0,0,0,0,0,0,0,0
2911,508,511,742.0,1,0,0,0,0,0,0,0,0,0
2912,508,510,742.0,1,0,0,0,0,0,0,0,0,0
2913,509,510,742.0,1,0,0,0,0,0,0,0,0,0
2914,509,510,742.0,1,0,0,0,0,0,0,0,0,0
2915,509,511,742.0,1,0,0,0,0,0,0,0,0,0
2916,509,509,742.0,1,0,0,0,0,0,0,0,0,0
2917,509,506,742.0,1,0,0,0,0,0,0,0,0,0
2918,509,508,742.0,1,0,0,0,0,0,0,0,0,0
2919,509,510,742.0,1,0,0,0,0,0,0,0,0,0
2920,509,511,742.0,1,0,0,0,0,0,0,0,0,0
2921,509,510,742.0,1,0,0,0,0,0,0,0,0,0
2922,510,511,742.0,1,0,0,0,0,0,0,0,0,0
2923,511,509,742.0,1,0,0,0,0,0,0,0,0,0
2924,511,506,742.0,1,0,0,0,0,0,0,0,0,0
2925,512,508,742.0,1,0,0,0,0,0,0,0,0,0
2926,512,509,742.0,1,0,0,0,0,0,0,0,0,0
2927,514,509,742.0,1,0,0,0,0,0,0,0,0,0
2928,515,509,742.0,1,0,0,0,0,0,0,0,0,0
2929,517,509,742.0,1,0,0,0,0,0,0,0,0,0
2930,518,508,742.0,1,0,0,0,0,0,0,0,0,0
2931,520,507,742.0,1,0,0,0,0,0,0,0,0,0
2932,523,508,742.0,1,0,0,0,0,0,0,0,0,0
2933,525,507,742.0,1,0,0,0,0,0,0,0,0,0
2934,525,505,742.0,1,0,0,0,0,0,0,0,0,0
2935,526,503,742.0,1,0,0,0,0,0,0,0,0,0
2936,524,504,742.0,1,0,0,0,0,0,0,0,0,0
2937,522,506,742.0,1,0,0,0,0,0,0,0,0,0
2938,520,507,742.0,1,0,0,0,0,0,0,0,0,0
2939,519,505,742.0,1,0,0,0,0,0,0,0,0,0
2940,518,507,742.0,1,0,0,0,0,0,0,0,0,0
2941,516,510,742.0,1,0,0,0,0,0,0,0,0,0
2942,513,511,742.0,1,0,0,0,0,0,0,0,0,0
2943,511,511,742.0,1,0,0,0,0,0,0,0,0,0
2944,508,510,742.0,1,0,0,0,0,0,0,0,0,0
2945,506,509,742.0,1,0,0,0,0,0,0,0,0,0
2946,504,511,742.0,1,0,0,0,0,0,0,0,0,0
2947,504,513,741.0,1,0,0,0,0,0,0,0,0,0
2948,503,514,741.0,1,0,0,0,0,0,0,0,0,0
2949,503,513,741.0,1,0,0,0,0,0,0,0,0,0
