TimeStamp,ECG Data,EMG Data,EDA Data,lowGamma,highGamma,highAlpha,delta,highBeta,lowAlpha,lowBeta,theta,attention,meditation
0,521,504,720.0,1,0,0,0,0,0,0,0,0,0
1,520,506,720.0,1,0,0,0,0,0,0,0,0,0
2,519,507,720.0,1,0,0,0,0,0,0,0,0,0
3,518,508,720.0,1,0,0,0,0,0,0,0,0,0
4,517,508,720.0,1,0,0,0,0,0,0,0,0,0
5,517,508,720.0,1,0,0,0,0,0,0,0,0,0
6,515,508,719.0,1,0,0,0,0,0,0,0,0,0
7,513,509,719.0,1,0,0,0,0,0,0,0,0,0
8,511,509,719.0,1,0,0,0,0,0,0,0,0,0
9,508,509,719.0,1,0,0,0,0,0,0,0,0,0
10,505,510,719.0,1,0,0,0,0,0,0,0,0,0
11,503,511,719.0,1,0,0,0,0,0,0,0,0,0
12,502,512,719.0,1,0,0,0,0,0,0,0,0,0
13,501,512,718.0,1,0,0,0,0,0,0,0,0,0
14,501,512,718.0,1,0,0,0,0,0,0,0,0,0
15,501,512,718.0,1,0,0,0,0,0,0,0,0,0
16,501,513,718.0,1,0,0,0,0,0,0,0,0,0
17,501,513,718.0,1,0,0,0,0,0,0,0,0,0
18,502,513,717.0,1,0,0,0,0,0,0,0,0,0
19,502,512,717.0,1,0,0,0,0,0,0,0,0,0
20,503,512,717.0,1,0,0,0,0,0,0,0,0,0
21,502,513,717.0,1,0,0,0,0,0,0,0,0,0
22,503,513,717.0,1,0,0,0,0,0,0,0,0,0
23,503,513,717.0,1,0,0,0,0,0,0,0,0,0
24,503,513,717.0,1,0,0,0,0,0,0,0,0,0
25,501,513,717.0,1,0,0,0,0,0,0,0,0,0
26,496,512,716.0,1,0,0,0,0,0,0,0,0,0
27,490,512,716.0,1,0,0,0,0,0,0,0,0,0
28,489,512,716.0,1,0,0,0,0,0,0,0,0,0
29,498,510,716.0,1,0,0,0,0,0,0,0,0,0
30,510,506,716.0,1,0,0,0,0,0,0,0,0,0
31,528,501,716.0,1,0,0,0,0,0,0,0,0,0
32,559,496,716.0,1,0,0,0,0,0,0,0,0,0
33,602,492,716.0,1,0,0,0,0,0,0,0,0,0
34,653,489,716.0,1,0,0,0,0,0,0,0,0,0
35,689,489,716.0,1,0,0,0,0,0,0,0,0,0
36,677,494,716.0,1,0,0,0,0,0,0,0,0,0
37,641,503,715.0,1,0,0,0,0,0,0,0,0,0
38,594,514,716.0,1,0,0,0,0,0,0,0,0,0
39,557,520,715.0,1,0,0,0,0,0,0,0,0,0
40,524,521,715.0,1,0,0,0,0,0,0,0,0,0
41,498,521,715.0,1,0,0,0,0,0,0,0,0,0
42,483,518,715.0,1,0,0,0,0,0,0,0,0,0
43,475,515,715.0,1,0,0,0,0,0,0,0,0,0
44,472,512,715.0,1,0,0,0,0,0,0,0,0,0
45,472,512,715.0,1,0,0,0,0,0,0,0,0,0
46,472,511,715.0,1,0,0,0,0,0,0,0,0,0
47,472,511,715.0,1,0,0,0,0,0,0,0,0,0
48,473,511,715.0,1,0,0,0,0,0,0,0,0,0
49,474,511,714.0,1,0,0,0,0,0,0,0,0,0
50,475,511,714.0,1,0,0,0,0,0,0,0,0,0
51,476,511,714.0,1,0,0,0,0,0,0,0,0,0
52,478,511,714.0,1,0,0,0,0,0,0,0,0,0
53,479,511,714.0,1,0,0,0,0,0,0,0,0,0
54,480,511,714.0,1,0,0,0,0,0,0,0,0,0
55,481,511,714.0,1,0,0,0,0,0,0,0,0,0
56,482,511,714.0,1,0,0,0,0,0,0,0,0,0
57,484,511,714.0,1,0,0,0,0,0,0,0,0,0
58,485,511,714.0,1,0,0,0,0,0,0,0,0,0
59,487,511,714.0,1,0,0,0,0,0,0,0,0,0
60,488,511,714.0,1,0,0,0,0,0,0,0,0,0
61,489,510,714.0,1,0,0,0,0,0,0,0,0,0
62,491,510,714.0,1,0,0,0,0,0,0,0,0,0
63,492,510,714.0,1,0,0,0,0,0,0,0,0,0
64,493,511,714.0,1,0,0,0,0,0,0,0,0,0
65,495,510,714.0,1,0,0,0,0,0,0,0,0,0
66,496,510,714.0,1,0,0,0,0,0,0,0,0,0
67,496,510,714.0,1,0,0,0,0,0,0,0,0,0
68,498,510,714.0,1,0,0,0,0,0,0,0,0,0
69,498,510,714.0,1,0,0,0,0,0,0,0,0,0
70,498,510,714.0,1,0,0,0,0,0,0,0,0,0
71,499,509,714.0,1,0,0,0,0,0,0,0,0,0
72,500,509,713.0,1,0,0,0,0,0,0,0,0,0
73,501,508,714.0,1,0,0,0,0,0,0,0,0,0
74,502,508,713.0,1,0,0,0,0,0,0,0,0,0
75,504,508,713.0,1,0,0,0,0,0,0,0,0,0
76,505,508,713.0,1,0,0,0,0,0,0,0,0,0
77,506,507,713.0,1,0,0,0,0,0,0,0,0,0
78,508,507,713.0,1,0,0,0,0,0,0,0,0,0
79,508,508,713.0,1,0,0,0,0,0,0,0,0,0
80,509,508,713.0,1,0,0,0,0,0,0,0,0,0
81,510,508,713.0,1,0,0,0,0,0,0,0,0,0
82,511,508,713.0,1,0,0,0,0,0,0,0,0,0
83,513,507,713.0,1,0,0,0,0,0,0,0,0,0
84,514,507,713.0,1,0,0,0,0,0,0,0,0,0
85,514,506,713.0,1,0,0,0,0,0,0,0,0,0
86,515,506,713.0,1,0,0,0,0,0,0,0,0,0
87,516,506,713.0,1,0,0,0,0,0,0,0,0,0
88,516,506,713.0,1,0,0,0,0,0,0,0,0,0
89,518,505,713.0,1,0,0,0,0,0,0,0,0,0
90,519,505,713.0,1,0,0,0,0,0,0,0,0,0
91,521,504,713.0,1,0,0,0,0,0,0,0,0,0
92,522,504,713.0,1,0,0,0,0,0,0,0,0,0
93,523,503,713.0,1,0,0,0,0,0,0,0,0,0
94,524,503,713.0,1,0,0,0,0,0,0,0,0,0
95,525,502,713.0,1,0,0,0,0,0,0,0,0,0
96,525,503,713.0,1,0,0,0,0,0,0,0,0,0
97,525,504,713.0,1,0,0,0,0,0,0,0,0,0
98,526,503,713.0,1,0,0,0,0,0,0,0,0,0
99,526,502,713.0,1,0,0,0,0,0,0,0,0,0
100,527,501,713.0,1,0,0,0,0,0,0,0,0,0
101,527,502,713.0,1,0,0,0,0,0,0,0,0,0
102,528,504,713.0,1,0,0,0,0,0,0,0,0,0
103,528,504,713.0,1,0,0,0,0,0,0,0,0,0
104,527,505,713.0,1,0,0,0,0,0,0,0,0,0
105,527,506,713.0,1,0,0,0,0,0,0,0,0,0
106,526,505,713.0,1,0,0,0,0,0,0,0,0,0
107,526,505,713.0,1,0,0,0,0,0,0,0,0,0
108,524,506,713.0,1,0,0,0,0,0,0,0,0,0
109,522,505,713.0,1,0,0,0,0,0,0,0,0,0
110,520,506,713.0,1,0,0,0,0,0,0,0,0,0
111,517,507,713.0,1,0,0,0,0,0,0,0,0,0
112,514,508,713.0,1,0,0,0,0,0,0,0,0,0
113,510,509,713.0,1,0,0,0,0,0,0,0,0,0
114,506,511,713.0,1,0,0,0,0,0,0,0,0,0
115,502,512,713.0,1,0,0,0,0,0,0,0,0,0
116,498,513,713.0,1,0,0,0,0,0,0,0,0,0
117,495,515,713.0,1,0,0,0,0,0,0,0,0,0
118,491,515,713.0,1,0,0,0,0,0,0,0,0,0
119,489,515,713.0,1,0,0,0,0,0,0,0,0,0
120,486,515,713.0,1,0,0,0,0,0,0,0,0,0
121,484,515,713.0,1,0,0,0,0,0,0,0,0,0
122,483,516,713.0,1,0,0,0,0,0,0,0,0,0
123,482,516,713.0,1,0,0,0,0,0,0,0,0,0
124,482,516,713.0,1,0,0,0,0,0,0,0,0,0
125,483,517,713.0,1,0,0,0,0,0,0,0,0,0
126,483,518,713.0,1,0,0,0,0,0,0,0,0,0
127,484,518,713.0,1,0,0,0,0,0,0,0,0,0
128,485,517,713.0,1,0,0,0,0,0,0,0,0,0
129,486,516,713.0,1,0,0,0,0,0,0,0,0,0
130,488,516,713.0,1,0,0,0,0,0,0,0,0,0
131,489,516,713.0,1,0,0,0,0,0,0,0,0,0
132,490,516,713.0,1,0,0,0,0,0,0,0,0,0
133,491,516,713.0,1,0,0,0,0,0,0,0,0,0
134,491,516,713.0,1,0,0,0,0,0,0,0,0,0
135,492,516,713.0,1,0,0,0,0,0,0,0,0,0
136,493,515,713.0,1,0,0,0,0,0,0,0,0,0
137,494,515,713.0,1,0,0,0,0,0,0,0,0,0
138,496,514,713.0,1,0,0,0,0,0,0,0,0,0
139,497,514,713.0,1,0,0,0,0,0,0,0,0,0
140,498,514,713.0,1,0,0,0,0,0,0,0,0,0
141,498,514,713.0,1,0,0,0,0,0,0,0,0,0
142,499,514,713.0,1,0,0,0,0,0,0,0,0,0
143,500,514,713.0,1,0,0,0,0,0,0,0,0,0
144,501,513,713.0,1,0,0,0,0,0,0,0,0,0
145,501,513,713.0,1,0,0,0,0,0,0,0,0,0
146,502,512,713.0,1,0,0,0,0,0,0,0,0,0
147,503,512,713.0,1,0,0,0,0,0,0,0,0,0
148,503,512,713.0,1,0,0,0,0,0,0,0,0,0
149,503,512,713.0,1,0,0,0,0,0,0,0,0,0
150,504,512,713.0,1,0,0,0,0,0,0,0,0,0
151,504,512,713.0,1,0,0,0,0,0,0,0,0,0
152,504,512,713.0,1,0,0,0,0,0,0,0,0,0
153,504,512,713.0,1,0,0,0,0,0,0,0,0,0
154,504,512,713.0,1,0,0,0,0,0,0,0,0,0
155,504,512,713.0,1,0,0,0,0,0,0,0,0,0
156,504,513,713.0,1,0,0,0,0,0,0,0,0,0
157,504,513,713.0,1,0,0,0,0,0,0,0,0,0
158,504,512,713.0,1,0,0,0,0,0,0,0,0,0
159,505,512,713.0,1,0,0,0,0,0,0,0,0,0
160,505,512,713.0,1,0,0,0,0,0,0,0,0,0
161,505,512,713.0,1,0,0,0,0,0,0,0,0,0
162,504,512,713.0,1,0,0,0,0,0,0,0,0,0
163,504,512,713.0,1,0,0,0,0,0,0,0,0,0
164,504,511,713.0,1,0,0,0,0,0,0,0,0,0
165,504,511,713.0,1,0,0,0,0,0,0,0,0,0
166,505,511,713.0,1,0,0,0,0,0,0,0,0,0
167,504,511,713.0,1,0,0,0,0,0,0,0,0,0
168,504,512,713.0,1,0,0,0,0,0,0,0,0,0
169,504,512,713.0,1,0,0,0,0,0,0,0,0,0
170,504,512,713.0,1,0,0,0,0,0,0,0,0,0
171,504,511,713.0,1,0,0,0,0,0,0,0,0,0
172,504,511,713.0,1,0,0,0,0,0,0,0,0,0
173,504,511,713.0,1,0,0,0,0,0,0,0,0,0
174,503,511,713.0,1,0,0,0,0,0,0,0,0,0
175,503,511,713.0,1,0,0,0,0,0,0,0,0,0
176,503,511,713.0,1,0,0,0,0,0,0,0,0,0
177,503,511,713.0,1,0,0,0,0,0,0,0,0,0
178,505,511,713.0,1,0,0,0,0,0,0,0,0,0
179,505,511,713.0,1,0,0,0,0,0,0,0,0,0
180,504,512,713.0,1,0,0,0,0,0,0,0,0,0
181,504,512,713.0,1,0,0,0,0,0,0,0,0,0
182,505,512,713.0,1,0,0,0,0,0,0,0,0,0
183,505,513,713.0,1,0,0,0,0,0,0,0,0,0
184,505,513,713.0,1,0,0,0,0,0,0,0,0,0
185,505,513,713.0,1,0,0,0,0,0,0,0,0,0
186,506,512,713.0,1,0,0,0,0,0,0,0,0,0
187,506,510,713.0,1,0,0,0,0,0,0,0,0,0
188,507,509,713.0,1,0,0,0,0,0,0,0,0,0
189,507,509,713.0,1,0,0,0,0,0,0,0,0,0
190,507,510,713.0,1,0,0,0,0,0,0,0,0,0
191,507,511,713.0,1,0,0,0,0,0,0,0,0,0
192,508,511,713.0,1,0,0,0,0,0,0,0,0,0
193,508,511,713.0,1,0,0,0,0,0,0,0,0,0
194,509,511,713.0,1,0,0,0,0,0,0,0,0,0
195,510,510,713.0,1,0,0,0,0,0,0,0,0,0
196,511,510,713.0,1,0,0,0,0,0,0,0,0,0
197,512,509,713.0,1,0,0,0,0,0,0,0,0,0
198,515,508,713.0,1,0,0,0,0,0,0,0,0,0
199,517,508,713.0,1,0,0,0,0,0,0,0,0,0
200,519,507,713.0,1,0,0,0,0,0,0,0,0,0
201,520,508,713.0,1,0,0,0,0,0,0,0,0,0
202,522,509,713.0,1,0,0,0,0,0,0,0,0,0
203,524,509,713.0,1,0,0,0,0,0,0,0,0,0
204,525,509,713.0,1,0,0,0,0,0,0,0,0,0
205,525,508,713.0,1,0,0,0,0,0,0,0,0,0
206,523,508,713.0,1,0,0,0,0,0,0,0,0,0
207,521,509,713.0,1,0,0,0,0,0,0,0,0,0
208,519,509,713.0,1,0,0,0,0,0,0,0,0,0
209,517,507,713.0,1,0,0,0,0,0,0,0,0,0
210,517,507,713.0,1,0,0,0,0,0,0,0,0,0
211,514,508,713.0,1,0,0,0,0,0,0,0,0,0
212,511,510,713.0,1,0,0,0,0,0,0,0,0,0
213,508,511,713.0,1,0,0,0,0,0,0,0,0,0
214,505,513,713.0,1,0,0,0,0,0,0,0,0,0
215,503,514,713.0,1,0,0,0,0,0,0,0,0,0
216,501,514,713.0,1,0,0,0,0,0,0,0,0,0
217,500,514,713.0,1,0,0,0,0,0,0,0,0,0
218,500,513,713.0,1,0,0,0,0,0,0,0,0,0
219,501,513,713.0,1,0,0,0,0,0,0,0,0,0
220,501,513,713.0,1,0,0,0,0,0,0,0,0,0
221,501,512,713.0,1,0,0,0,0,0,0,0,0,0
222,501,512,713.0,1,0,0,0,0,0,0,0,0,0
223,501,512,713.0,1,0,0,0,0,0,0,0,0,0
224,502,511,713.0,1,0,0,0,0,0,0,0,0,0
225,503,510,713.0,1,0,0,0,0,0,0,0,0,0
226,503,510,713.0,1,0,0,0,0,0,0,0,0,0
227,503,511,713.0,1,0,0,0,0,0,0,0,0,0
228,502,511,713.0,1,0,0,0,0,0,0,0,0,0
229,501,511,713.0,1,0,0,0,0,0,0,0,0,0
230,498,510,713.0,1,0,0,0,0,0,0,0,0,0
231,491,511,713.0,1,0,0,0,0,0,0,0,0,0
232,487,512,713.0,1,0,0,0,0,0,0,0,0,0
233,493,511,713.0,1,0,0,0,0,0,0,0,0,0
234,506,508,713.0,1,0,0,0,0,0,0,0,0,0
235,522,504,713.0,1,0,0,0,0,0,0,0,0,0
236,549,500,713.0,1,0,0,0,0,0,0,0,0,0
237,585,496,713.0,1,0,0,0,0,0,0,0,0,0
238,627,494,713.0,1,0,0,0,0,0,0,0,0,0
239,668,492,713.0,1,0,0,0,0,0,0,0,0,0
240,662,495,713.0,1,0,0,0,0,0,0,0,0,0
241,622,503,713.0,1,0,0,0,0,0,0,0,0,0
242,577,514,713.0,1,0,0,0,0,0,0,0,0,0
243,546,520,713.0,1,0,0,0,0,0,0,0,0,0
244,527,521,713.0,1,0,0,0,0,0,0,0,0,0
245,508,519,713.0,1,0,0,0,0,0,0,0,0,0
246,489,517,713.0,1,0,0,0,0,0,0,0,0,0
247,481,516,713.0,1,0,0,0,0,0,0,0,0,0
248,476,514,713.0,1,0,0,0,0,0,0,0,0,0
249,475,511,713.0,1,0,0,0,0,0,0,0,0,0
250,476,510,713.0,1,0,0,0,0,0,0,0,0,0
251,479,510,713.0,1,0,0,0,0,0,0,0,0,0
252,481,510,713.0,1,0,0,0,0,0,0,0,0,0
253,482,510,713.0,1,0,0,0,0,0,0,0,0,0
254,483,509,713.0,1,0,0,0,0,0,0,0,0,0
255,485,509,713.0,1,0,0,0,0,0,0,0,0,0
256,486,509,713.0,1,0,0,0,0,0,0,0,0,0
257,487,509,713.0,1,0,0,0,0,0,0,0,0,0
258,487,509,713.0,1,0,0,0,0,0,0,0,0,0
259,488,508,713.0,1,0,0,0,0,0,0,0,0,0
260,488,508,713.0,1,0,0,0,0,0,0,0,0,0
261,490,509,713.0,1,0,0,0,0,0,0,0,0,0
262,492,509,713.0,1,0,0,0,0,0,0,0,0,0
263,494,509,713.0,1,0,0,0,0,0,0,0,0,0
264,495,510,713.0,1,0,0,0,0,0,0,0,0,0
265,496,509,713.0,1,0,0,0,0,0,0,0,0,0
266,497,509,713.0,1,0,0,0,0,0,0,0,0,0
267,498,509,713.0,1,0,0,0,0,0,0,0,0,0
268,499,510,713.0,1,0,0,0,0,0,0,0,0,0
269,499,509,713.0,1,0,0,0,0,0,0,0,0,0
270,499,509,713.0,1,0,0,0,0,0,0,0,0,0
271,501,509,713.0,1,0,0,0,0,0,0,0,0,0
272,502,509,713.0,1,0,0,0,0,0,0,0,0,0
273,503,510,713.0,1,0,0,0,0,0,0,0,0,0
274,504,509,713.0,1,0,0,0,0,0,0,0,0,0
275,504,508,713.0,1,0,0,0,0,0,0,0,0,0
276,505,508,713.0,1,0,0,0,0,0,0,0,0,0
277,506,508,713.0,1,0,0,0,0,0,0,0,0,0
278,507,508,713.0,1,0,0,0,0,0,0,0,0,0
279,508,509,713.0,1,0,0,0,0,0,0,0,0,0
280,510,508,713.0,1,0,0,0,0,0,0,0,0,0
281,511,507,713.0,1,0,0,0,0,0,0,0,0,0
282,512,508,712.0,1,0,0,0,0,0,0,0,0,0
283,512,507,713.0,1,0,0,0,0,0,0,0,0,0
284,513,508,713.0,1,0,0,0,0,0,0,0,0,0
285,513,507,713.0,1,0,0,0,0,0,0,0,0,0
286,514,507,713.0,1,0,0,0,0,0,0,0,0,0
287,515,506,713.0,1,0,0,0,0,0,0,0,0,0
288,516,507,713.0,1,0,0,0,0,0,0,0,0,0
289,517,507,713.0,1,0,0,0,0,0,0,0,0,0
290,518,506,713.0,1,0,0,0,0,0,0,0,0,0
291,519,505,713.0,1,0,0,0,0,0,0,0,0,0
292,521,504,712.0,1,0,0,0,0,0,0,0,0,0
293,522,504,713.0,1,0,0,0,0,0,0,0,0,0
294,524,505,712.0,1,0,0,0,0,0,0,0,0,0
295,525,506,713.0,1,0,0,0,0,0,0,0,0,0
296,525,506,712.0,1,0,0,0,0,0,0,0,0,0
297,526,505,713.0,1,0,0,0,0,0,0,0,0,0
298,528,504,713.0,1,0,0,0,0,0,0,0,0,0
299,530,503,713.0,1,0,0,0,0,0,0,0,0,0
300,531,504,712.0,1,0,0,0,0,0,0,0,0,0
301,531,503,713.0,1,0,0,0,0,0,0,0,0,0
302,532,504,712.0,1,0,0,0,0,0,0,0,0,0
303,533,504,712.0,1,0,0,0,0,0,0,0,0,0
304,533,504,712.0,1,0,0,0,0,0,0,0,0,0
305,533,504,712.0,1,0,0,0,0,0,0,0,0,0
306,533,505,712.0,1,0,0,0,0,0,0,0,0,0
307,532,505,712.0,1,0,0,0,0,0,0,0,0,0
308,532,505,712.0,1,0,0,0,0,0,0,0,0,0
309,532,505,712.0,1,0,0,0,0,0,0,0,0,0
310,532,506,712.0,1,0,0,0,0,0,0,0,0,0
311,531,505,712.0,1,0,0,0,0,0,0,0,0,0
312,529,505,712.0,1,0,0,0,0,0,0,0,0,0
313,527,506,712.0,1,0,0,0,0,0,0,0,0,0
314,524,507,712.0,1,0,0,0,0,0,0,0,0,0
315,520,509,712.0,1,0,0,0,0,0,0,0,0,0
316,515,511,712.0,1,0,0,0,0,0,0,0,0,0
317,510,512,712.0,1,0,0,0,0,0,0,0,0,0
318,505,512,712.0,1,0,0,0,0,0,0,0,0,0
319,501,513,712.0,1,0,0,0,0,0,0,0,0,0
320,497,515,712.0,1,0,0,0,0,0,0,0,0,0
321,494,515,712.0,1,0,0,0,0,0,0,0,0,0
322,491,517,712.0,1,0,0,0,0,0,0,0,0,0
323,489,518,712.0,1,0,0,0,0,0,0,0,0,0
324,486,520,712.0,1,0,0,0,0,0,0,0,0,0
325,485,519,712.0,1,0,0,0,0,0,0,0,0,0
326,483,519,712.0,1,0,0,0,0,0,0,0,0,0
327,483,520,712.0,1,0,0,0,0,0,0,0,0,0
328,482,520,712.0,1,0,0,0,0,0,0,0,0,0
329,482,518,712.0,1,0,0,0,0,0,0,0,0,0
330,483,518,712.0,1,0,0,0,0,0,0,0,0,0
331,484,519,712.0,1,0,0,0,0,0,0,0,0,0
332,485,520,712.0,1,0,0,0,0,0,0,0,0,0
333,486,520,712.0,1,0,0,0,0,0,0,0,0,0
334,487,519,712.0,1,0,0,0,0,0,0,0,0,0
335,488,519,712.0,1,0,0,0,0,0,0,0,0,0
336,489,519,712.0,1,0,0,0,0,0,0,0,0,0
337,491,519,712.0,1,0,0,0,0,0,0,0,0,0
338,492,519,712.0,1,0,0,0,0,0,0,0,0,0
339,493,518,712.0,1,0,0,0,0,0,0,0,0,0
340,494,517,712.0,1,0,0,0,0,0,0,0,0,0
341,495,516,712.0,1,0,0,0,0,0,0,0,0,0
342,495,516,712.0,1,0,0,0,0,0,0,0,0,0
343,496,515,712.0,1,0,0,0,0,0,0,0,0,0
344,498,515,712.0,1,0,0,0,0,0,0,0,0,0
345,499,514,712.0,1,0,0,0,0,0,0,0,0,0
346,500,514,712.0,1,0,0,0,0,0,0,0,0,0
347,501,514,712.0,1,0,0,0,0,0,0,0,0,0
348,502,514,712.0,1,0,0,0,0,0,0,0,0,0
349,502,514,712.0,1,0,0,0,0,0,0,0,0,0
350,503,514,712.0,1,0,0,0,0,0,0,0,0,0
351,504,515,712.0,1,0,0,0,0,0,0,0,0,0
352,504,514,712.0,1,0,0,0,0,0,0,0,0,0
353,504,512,712.0,1,0,0,0,0,0,0,0,0,0
354,504,512,712.0,1,0,0,0,0,0,0,0,0,0
355,505,512,712.0,1,0,0,0,0,0,0,0,0,0
356,505,512,712.0,1,0,0,0,0,0,0,0,0,0
357,506,513,712.0,1,0,0,0,0,0,0,0,0,0
358,506,514,712.0,1,0,0,0,0,0,0,0,0,0
359,506,514,712.0,1,0,0,0,0,0,0,0,0,0
360,506,513,712.0,1,0,0,0,0,0,0,0,0,0
361,506,513,712.0,1,0,0,0,0,0,0,0,0,0
362,506,513,712.0,1,0,0,0,0,0,0,0,0,0
363,506,513,712.0,1,0,0,0,0,0,0,0,0,0
364,506,512,712.0,1,0,0,0,0,0,0,0,0,0
365,506,512,712.0,1,0,0,0,0,0,0,0,0,0
366,506,512,712.0,1,0,0,0,0,0,0,0,0,0
367,506,512,711.0,1,0,0,0,0,0,0,0,0,0
368,506,512,711.0,1,0,0,0,0,0,0,0,0,0
369,506,513,711.0,1,0,0,0,0,0,0,0,0,0
370,506,513,711.0,1,0,0,0,0,0,0,0,0,0
371,507,513,711.0,1,0,0,0,0,0,0,0,0,0
372,507,513,711.0,1,0,0,0,0,0,0,0,0,0
373,507,512,711.0,1,0,0,0,0,0,0,0,0,0
374,507,512,711.0,1,0,0,0,0,0,0,0,0,0
375,507,512,711.0,1,0,0,0,0,0,0,0,0,0
376,507,512,711.0,1,0,0,0,0,0,0,0,0,0
377,507,512,711.0,1,0,0,0,0,0,0,0,0,0
378,507,512,711.0,1,0,0,0,0,0,0,0,0,0
379,508,512,711.0,1,0,0,0,0,0,0,0,0,0
380,509,511,711.0,1,0,0,0,0,0,0,0,0,0
381,509,511,711.0,1,0,0,0,0,0,0,0,0,0
382,509,511,711.0,1,0,0,0,0,0,0,0,0,0
383,509,512,711.0,1,0,0,0,0,0,0,0,0,0
384,509,512,711.0,1,0,0,0,0,0,0,0,0,0
385,508,512,711.0,1,0,0,0,0,0,0,0,0,0
386,508,513,711.0,1,0,0,0,0,0,0,0,0,0
387,508,513,711.0,1,0,0,0,0,0,0,0,0,0
388,509,512,711.0,1,0,0,0,0,0,0,0,0,0
389,511,512,711.0,1,0,0,0,0,0,0,0,0,0
390,512,511,711.0,1,0,0,0,0,0,0,0,0,0
391,513,509,711.0,1,0,0,0,0,0,0,0,0,0
392,515,508,711.0,1,0,0,0,0,0,0,0,0,0
393,518,507,711.0,1,0,0,0,0,0,0,0,0,0
394,520,508,711.0,1,0,0,0,0,0,0,0,0,0
395,521,508,711.0,1,0,0,0,0,0,0,0,0,0
396,523,508,711.0,1,0,0,0,0,0,0,0,0,0
397,526,508,711.0,1,0,0,0,0,0,0,0,0,0
398,527,508,711.0,1,0,0,0,0,0,0,0,0,0
399,527,508,711.0,1,0,0,0,0,0,0,0,0,0
400,526,508,711.0,1,0,0,0,0,0,0,0,0,0
401,524,508,711.0,1,0,0,0,0,0,0,0,0,0
402,522,508,711.0,1,0,0,0,0,0,0,0,0,0
403,520,508,711.0,1,0,0,0,0,0,0,0,0,0
404,519,508,711.0,1,0,0,0,0,0,0,0,0,0
405,518,508,711.0,1,0,0,0,0,0,0,0,0,0
406,516,509,711.0,1,0,0,0,0,0,0,0,0,0
407,513,510,710.0,1,0,0,0,0,0,0,0,0,0
408,510,511,711.0,1,0,0,0,0,0,0,0,0,0
409,507,512,711.0,1,0,0,0,0,0,0,0,0,0
410,505,512,711.0,1,0,0,0,0,0,0,0,0,0
411,504,512,710.0,1,0,0,0,0,0,0,0,0,0
412,504,512,711.0,1,0,0,0,0,0,0,0,0,0
413,503,511,711.0,1,0,0,0,0,0,0,0,0,0
414,503,511,710.0,1,0,0,0,0,0,0,0,0,0
415,504,511,710.0,1,0,0,0,0,0,0,0,0,0
416,504,512,711.0,1,0,0,0,0,0,0,0,0,0
417,503,513,710.0,1,0,0,0,0,0,0,0,0,0
418,503,512,710.0,1,0,0,0,0,0,0,0,0,0
419,503,512,710.0,1,0,0,0,0,0,0,0,0,0
420,504,512,710.0,1,0,0,0,0,0,0,0,0,0
421,504,512,710.0,1,0,0,0,0,0,0,0,0,0
422,505,511,710.0,1,0,0,0,0,0,0,0,0,0
423,506,511,710.0,1,0,0,0,0,0,0,0,0,0
424,504,511,710.0,1,0,0,0,0,0,0,0,0,0
425,499,510,710.0,1,0,0,0,0,0,0,0,0,0
426,492,510,710.0,1,0,0,0,0,0,0,0,0,0
427,491,510,710.0,1,0,0,0,0,0,0,0,0,0
428,499,508,710.0,1,0,0,0,0,0,0,0,0,0
429,512,506,710.0,1,0,0,0,0,0,0,0,0,0
430,530,502,710.0,1,0,0,0,0,0,0,0,0,0
431,562,499,710.0,1,0,0,0,0,0,0,0,0,0
432,604,496,710.0,1,0,0,0,0,0,0,0,0,0
433,652,493,710.0,1,0,0,0,0,0,0,0,0,0
434,684,493,710.0,1,0,0,0,0,0,0,0,0,0
435,661,498,710.0,1,0,0,0,0,0,0,0,0,0
436,618,507,710.0,1,0,0,0,0,0,0,0,0,0
437,572,515,710.0,1,0,0,0,0,0,0,0,0,0
438,544,520,710.0,1,0,0,0,0,0,0,0,0,0
439,522,520,710.0,1,0,0,0,0,0,0,0,0,0
440,501,519,710.0,1,0,0,0,0,0,0,0,0,0
441,486,518,710.0,1,0,0,0,0,0,0,0,0,0
442,479,515,710.0,1,0,0,0,0,0,0,0,0,0
443,476,513,710.0,1,0,0,0,0,0,0,0,0,0
444,476,512,710.0,1,0,0,0,0,0,0,0,0,0
445,477,511,710.0,1,0,0,0,0,0,0,0,0,0
446,479,510,710.0,1,0,0,0,0,0,0,0,0,0
447,480,510,710.0,1,0,0,0,0,0,0,0,0,0
448,481,510,710.0,1,0,0,0,0,0,0,0,0,0
449,482,510,710.0,1,0,0,0,0,0,0,0,0,0
450,484,509,710.0,1,0,0,0,0,0,0,0,0,0
451,485,509,710.0,1,0,0,0,0,0,0,0,0,0
452,486,509,709.0,1,0,0,0,0,0,0,0,0,0
453,487,508,709.0,1,0,0,0,0,0,0,0,0,0
454,488,508,709.0,1,0,0,0,0,0,0,0,0,0
455,490,509,710.0,1,0,0,0,0,0,0,0,0,0
456,492,508,709.0,1,0,0,0,0,0,0,0,0,0
457,493,508,709.0,1,0,0,0,0,0,0,0,0,0
458,494,508,709.0,1,0,0,0,0,0,0,0,0,0
459,496,508,709.0,1,0,0,0,0,0,0,0,0,0
460,497,509,709.0,1,0,0,0,0,0,0,0,0,0
461,498,509,709.0,1,0,0,0,0,0,0,0,0,0
462,499,508,709.0,1,0,0,0,0,0,0,0,0,0
463,501,508,709.0,1,0,0,0,0,0,0,0,0,0
464,501,508,709.0,1,0,0,0,0,0,0,0,0,0
465,502,508,709.0,1,0,0,0,0,0,0,0,0,0
466,504,508,709.0,1,0,0,0,0,0,0,0,0,0
467,504,508,709.0,1,0,0,0,0,0,0,0,0,0
468,504,508,709.0,1,0,0,0,0,0,0,0,0,0
469,505,508,709.0,1,0,0,0,0,0,0,0,0,0
470,507,508,709.0,1,0,0,0,0,0,0,0,0,0
471,508,509,709.0,1,0,0,0,0,0,0,0,0,0
472,510,509,709.0,1,0,0,0,0,0,0,0,0,0
473,510,508,709.0,1,0,0,0,0,0,0,0,0,0
474,510,508,709.0,1,0,0,0,0,0,0,0,0,0
475,511,508,709.0,1,0,0,0,0,0,0,0,0,0
476,512,507,709.0,1,0,0,0,0,0,0,0,0,0
477,512,507,709.0,1,0,0,0,0,0,0,0,0,0
478,514,509,709.0,1,0,0,0,0,0,0,0,0,0
479,515,508,709.0,1,0,0,0,0,0,0,0,0,0
480,515,508,709.0,1,0,0,0,0,0,0,0,0,0
481,517,507,709.0,1,0,0,0,0,0,0,0,0,0
482,518,506,709.0,1,0,0,0,0,0,0,0,0,0
483,519,506,709.0,1,0,0,0,0,0,0,0,0,0
484,520,507,709.0,1,0,0,0,0,0,0,0,0,0
485,521,507,709.0,1,0,0,0,0,0,0,0,0,0
486,522,506,709.0,1,0,0,0,0,0,0,0,0,0
487,523,505,709.0,1,0,0,0,0,0,0,0,0,0
488,524,504,708.0,1,0,0,0,0,0,0,0,0,0
489,526,505,708.0,1,0,0,0,0,0,0,0,0,0
490,527,504,708.0,1,0,0,0,0,0,0,0,0,0
491,528,504,708.0,1,0,0,0,0,0,0,0,0,0
492,530,504,708.0,1,0,0,0,0,0,0,0,0,0
493,531,504,708.0,1,0,0,0,0,0,0,0,0,0
494,531,505,708.0,1,0,0,0,0,0,0,0,0,0
495,531,505,708.0,1,0,0,0,0,0,0,0,0,0
496,532,504,708.0,1,0,0,0,0,0,0,0,0,0
497,532,503,708.0,1,0,0,0,0,0,0,0,0,0
498,532,503,708.0,1,0,0,0,0,0,0,0,0,0
499,533,503,708.0,1,0,0,0,0,0,0,0,0,0
500,533,503,708.0,1,0,0,0,0,0,0,0,0,0
501,533,503,708.0,1,0,0,0,0,0,0,0,0,0
502,532,503,708.0,1,0,0,0,0,0,0,0,0,0
503,532,503,708.0,1,0,0,0,0,0,0,0,0,0
504,531,504,708.0,1,0,0,0,0,0,0,0,0,0
505,530,504,708.0,1,0,0,0,0,0,0,0,0,0
506,528,504,708.0,1,0,0,0,0,0,0,0,0,0
507,526,505,708.0,1,0,0,0,0,0,0,0,0,0
508,523,506,708.0,1,0,0,0,0,0,0,0,0,0
509,519,507,708.0,1,0,0,0,0,0,0,0,0,0
510,515,509,708.0,1,0,0,0,0,0,0,0,0,0
511,510,510,708.0,1,0,0,0,0,0,0,0,0,0
512,506,512,708.0,1,0,0,0,0,0,0,0,0,0
513,502,512,708.0,1,0,0,0,0,0,0,0,0,0
514,498,513,708.0,1,0,0,0,0,0,0,0,0,0
515,494,515,708.0,1,0,0,0,0,0,0,0,0,0
516,491,516,708.0,1,0,0,0,0,0,0,0,0,0
517,488,517,708.0,1,0,0,0,0,0,0,0,0,0
518,487,517,708.0,1,0,0,0,0,0,0,0,0,0
519,485,517,708.0,1,0,0,0,0,0,0,0,0,0
520,483,516,708.0,1,0,0,0,0,0,0,0,0,0
521,483,516,708.0,1,0,0,0,0,0,0,0,0,0
522,482,517,708.0,1,0,0,0,0,0,0,0,0,0
523,482,518,707.0,1,0,0,0,0,0,0,0,0,0
524,482,518,707.0,1,0,0,0,0,0,0,0,0,0
525,484,518,707.0,1,0,0,0,0,0,0,0,0,0
526,485,517,707.0,1,0,0,0,0,0,0,0,0,0
527,486,516,707.0,1,0,0,0,0,0,0,0,0,0
528,487,516,707.0,1,0,0,0,0,0,0,0,0,0
529,487,515,707.0,1,0,0,0,0,0,0,0,0,0
530,489,515,707.0,1,0,0,0,0,0,0,0,0,0
531,490,515,707.0,1,0,0,0,0,0,0,0,0,0
532,490,514,707.0,1,0,0,0,0,0,0,0,0,0
533,492,514,707.0,1,0,0,0,0,0,0,0,0,0
534,494,514,707.0,1,0,0,0,0,0,0,0,0,0
535,495,513,707.0,1,0,0,0,0,0,0,0,0,0
536,497,513,707.0,1,0,0,0,0,0,0,0,0,0
537,497,514,707.0,1,0,0,0,0,0,0,0,0,0
538,498,515,707.0,1,0,0,0,0,0,0,0,0,0
539,499,514,707.0,1,0,0,0,0,0,0,0,0,0
540,500,515,707.0,1,0,0,0,0,0,0,0,0,0
541,501,515,707.0,1,0,0,0,0,0,0,0,0,0
542,501,514,707.0,1,0,0,0,0,0,0,0,0,0
543,502,514,707.0,1,0,0,0,0,0,0,0,0,0
544,502,515,707.0,1,0,0,0,0,0,0,0,0,0
545,502,515,707.0,1,0,0,0,0,0,0,0,0,0
546,503,515,707.0,1,0,0,0,0,0,0,0,0,0
547,504,515,707.0,1,0,0,0,0,0,0,0,0,0
548,505,514,707.0,1,0,0,0,0,0,0,0,0,0
549,505,513,707.0,1,0,0,0,0,0,0,0,0,0
550,505,513,707.0,1,0,0,0,0,0,0,0,0,0
551,506,513,707.0,1,0,0,0,0,0,0,0,0,0
552,506,513,707.0,1,0,0,0,0,0,0,0,0,0
553,505,512,707.0,1,0,0,0,0,0,0,0,0,0
554,506,512,706.0,1,0,0,0,0,0,0,0,0,0
555,506,512,707.0,1,0,0,0,0,0,0,0,0,0
556,506,512,706.0,1,0,0,0,0,0,0,0,0,0
557,506,512,706.0,1,0,0,0,0,0,0,0,0,0
558,506,512,706.0,1,0,0,0,0,0,0,0,0,0
559,506,512,706.0,1,0,0,0,0,0,0,0,0,0
560,505,513,706.0,1,0,0,0,0,0,0,0,0,0
561,506,512,706.0,1,0,0,0,0,0,0,0,0,0
562,505,513,706.0,1,0,0,0,0,0,0,0,0,0
563,505,513,706.0,1,0,0,0,0,0,0,0,0,0
564,504,513,706.0,1,0,0,0,0,0,0,0,0,0
565,505,513,706.0,1,0,0,0,0,0,0,0,0,0
566,505,513,706.0,1,0,0,0,0,0,0,0,0,0
567,506,513,706.0,1,0,0,0,0,0,0,0,0,0
568,507,513,706.0,1,0,0,0,0,0,0,0,0,0
569,507,513,706.0,1,0,0,0,0,0,0,0,0,0
570,506,512,706.0,1,0,0,0,0,0,0,0,0,0
571,506,512,706.0,1,0,0,0,0,0,0,0,0,0
572,507,512,706.0,1,0,0,0,0,0,0,0,0,0
573,506,512,706.0,1,0,0,0,0,0,0,0,0,0
574,507,512,706.0,1,0,0,0,0,0,0,0,0,0
575,507,512,706.0,1,0,0,0,0,0,0,0,0,0
576,507,512,706.0,1,0,0,0,0,0,0,0,0,0
577,507,513,706.0,1,0,0,0,0,0,0,0,0,0
578,506,513,706.0,1,0,0,0,0,0,0,0,0,0
579,507,513,706.0,1,0,0,0,0,0,0,0,0,0
580,508,513,706.0,1,0,0,0,0,0,0,0,0,0
581,507,512,706.0,1,0,0,0,0,0,0,0,0,0
582,507,512,706.0,1,0,0,0,0,0,0,0,0,0
583,507,511,706.0,1,0,0,0,0,0,0,0,0,0
584,508,511,706.0,1,0,0,0,0,0,0,0,0,0
585,508,510,705.0,1,0,0,0,0,0,0,0,0,0
586,508,509,705.0,1,0,0,0,0,0,0,0,0,0
587,510,510,706.0,1,0,0,0,0,0,0,0,0,0
588,512,509,705.0,1,0,0,0,0,0,0,0,0,0
589,513,509,706.0,1,0,0,0,0,0,0,0,0,0
590,515,509,705.0,1,0,0,0,0,0,0,0,0,0
591,517,509,705.0,1,0,0,0,0,0,0,0,0,0
592,518,508,705.0,1,0,0,0,0,0,0,0,0,0
593,521,508,705.0,1,0,0,0,0,0,0,0,0,0
594,522,508,705.0,1,0,0,0,0,0,0,0,0,0
595,525,508,705.0,1,0,0,0,0,0,0,0,0,0
596,527,507,705.0,1,0,0,0,0,0,0,0,0,0
597,528,506,705.0,1,0,0,0,0,0,0,0,0,0
598,528,506,705.0,1,0,0,0,0,0,0,0,0,0
599,525,506,705.0,1,0,0,0,0,0,0,0,0,0
600,522,507,705.0,1,0,0,0,0,0,0,0,0,0
601,519,507,705.0,1,0,0,0,0,0,0,0,0,0
602,518,507,705.0,1,0,0,0,0,0,0,0,0,0
603,517,507,705.0,1,0,0,0,0,0,0,0,0,0
604,515,507,705.0,1,0,0,0,0,0,0,0,0,0
605,512,507,705.0,1,0,0,0,0,0,0,0,0,0
606,510,508,705.0,1,0,0,0,0,0,0,0,0,0
607,506,509,705.0,1,0,0,0,0,0,0,0,0,0
608,505,511,705.0,1,0,0,0,0,0,0,0,0,0
609,503,511,705.0,1,0,0,0,0,0,0,0,0,0
610,503,511,705.0,1,0,0,0,0,0,0,0,0,0
611,503,511,705.0,1,0,0,0,0,0,0,0,0,0
612,503,511,705.0,1,0,0,0,0,0,0,0,0,0
613,503,511,705.0,1,0,0,0,0,0,0,0,0,0
614,505,511,705.0,1,0,0,0,0,0,0,0,0,0
615,505,511,705.0,1,0,0,0,0,0,0,0,0,0
616,505,511,705.0,1,0,0,0,0,0,0,0,0,0
617,505,511,705.0,1,0,0,0,0,0,0,0,0,0
618,505,511,705.0,1,0,0,0,0,0,0,0,0,0
619,506,511,705.0,1,0,0,0,0,0,0,0,0,0
620,506,511,705.0,1,0,0,0,0,0,0,0,0,0
621,506,509,705.0,1,0,0,0,0,0,0,0,0,0
622,503,510,705.0,1,0,0,0,0,0,0,0,0,0
623,499,510,705.0,1,0,0,0,0,0,0,0,0,0
624,492,509,704.0,1,0,0,0,0,0,0,0,0,0
625,490,508,705.0,1,0,0,0,0,0,0,0,0,0
626,498,509,704.0,1,0,0,0,0,0,0,0,0,0
627,510,506,704.0,1,0,0,0,0,0,0,0,0,0
628,528,502,705.0,1,0,0,0,0,0,0,0,0,0
629,561,498,705.0,1,0,0,0,0,0,0,0,0,0
630,605,494,705.0,1,0,0,0,0,0,0,0,0,0
631,657,492,705.0,1,0,0,0,0,0,0,0,0,0
632,694,492,705.0,1,0,0,0,0,0,0,0,0,0
633,681,496,704.0,1,0,0,0,0,0,0,0,0,0
634,640,504,704.0,1,0,0,0,0,0,0,0,0,0
635,589,513,704.0,1,0,0,0,0,0,0,0,0,0
636,551,518,704.0,1,0,0,0,0,0,0,0,0,0
637,520,519,704.0,1,0,0,0,0,0,0,0,0,0
638,496,519,704.0,1,0,0,0,0,0,0,0,0,0
639,482,518,704.0,1,0,0,0,0,0,0,0,0,0
640,476,515,704.0,1,0,0,0,0,0,0,0,0,0
641,474,512,704.0,1,0,0,0,0,0,0,0,0,0
642,473,511,704.0,1,0,0,0,0,0,0,0,0,0
643,474,511,704.0,1,0,0,0,0,0,0,0,0,0
644,475,511,704.0,1,0,0,0,0,0,0,0,0,0
645,476,512,704.0,1,0,0,0,0,0,0,0,0,0
646,477,512,704.0,1,0,0,0,0,0,0,0,0,0
647,478,512,704.0,1,0,0,0,0,0,0,0,0,0
648,479,511,704.0,1,0,0,0,0,0,0,0,0,0
649,481,510,704.0,1,0,0,0,0,0,0,0,0,0
650,482,510,704.0,1,0,0,0,0,0,0,0,0,0
651,483,510,704.0,1,0,0,0,0,0,0,0,0,0
652,484,510,704.0,1,0,0,0,0,0,0,0,0,0
653,486,510,704.0,1,0,0,0,0,0,0,0,0,0
654,488,510,704.0,1,0,0,0,0,0,0,0,0,0
655,490,511,704.0,1,0,0,0,0,0,0,0,0,0
656,491,510,704.0,1,0,0,0,0,0,0,0,0,0
657,492,511,704.0,1,0,0,0,0,0,0,0,0,0
658,493,511,704.0,1,0,0,0,0,0,0,0,0,0
659,494,509,704.0,1,0,0,0,0,0,0,0,0,0
660,495,509,704.0,1,0,0,0,0,0,0,0,0,0
661,495,509,704.0,1,0,0,0,0,0,0,0,0,0
662,496,509,704.0,1,0,0,0,0,0,0,0,0,0
663,497,509,704.0,1,0,0,0,0,0,0,0,0,0
664,499,508,704.0,1,0,0,0,0,0,0,0,0,0
665,500,508,704.0,1,0,0,0,0,0,0,0,0,0
666,500,508,704.0,1,0,0,0,0,0,0,0,0,0
667,501,509,704.0,1,0,0,0,0,0,0,0,0,0
668,502,508,704.0,1,0,0,0,0,0,0,0,0,0
669,503,506,704.0,1,0,0,0,0,0,0,0,0,0
670,504,506,704.0,1,0,0,0,0,0,0,0,0,0
671,506,506,704.0,1,0,0,0,0,0,0,0,0,0
672,507,505,703.0,1,0,0,0,0,0,0,0,0,0
673,508,506,703.0,1,0,0,0,0,0,0,0,0,0
674,509,506,703.0,1,0,0,0,0,0,0,0,0,0
675,510,506,703.0,1,0,0,0,0,0,0,0,0,0
676,511,506,703.0,1,0,0,0,0,0,0,0,0,0
677,511,506,703.0,1,0,0,0,0,0,0,0,0,0
678,512,505,703.0,1,0,0,0,0,0,0,0,0,0
679,513,505,703.0,1,0,0,0,0,0,0,0,0,0
680,514,504,703.0,1,0,0,0,0,0,0,0,0,0
681,515,503,703.0,1,0,0,0,0,0,0,0,0,0
682,517,504,703.0,1,0,0,0,0,0,0,0,0,0
683,518,503,703.0,1,0,0,0,0,0,0,0,0,0
684,518,503,703.0,1,0,0,0,0,0,0,0,0,0
685,519,504,703.0,1,0,0,0,0,0,0,0,0,0
686,520,504,703.0,1,0,0,0,0,0,0,0,0,0
687,521,505,703.0,1,0,0,0,0,0,0,0,0,0
688,522,505,703.0,1,0,0,0,0,0,0,0,0,0
689,523,504,703.0,1,0,0,0,0,0,0,0,0,0
690,524,503,703.0,1,0,0,0,0,0,0,0,0,0
691,525,504,703.0,1,0,0,0,0,0,0,0,0,0
692,526,506,703.0,1,0,0,0,0,0,0,0,0,0
693,527,507,703.0,1,0,0,0,0,0,0,0,0,0
694,527,507,703.0,1,0,0,0,0,0,0,0,0,0
695,528,505,703.0,1,0,0,0,0,0,0,0,0,0
696,529,505,703.0,1,0,0,0,0,0,0,0,0,0
697,529,506,703.0,1,0,0,0,0,0,0,0,0,0
698,529,506,703.0,1,0,0,0,0,0,0,0,0,0
699,527,506,703.0,1,0,0,0,0,0,0,0,0,0
700,527,504,703.0,1,0,0,0,0,0,0,0,0,0
701,526,506,703.0,1,0,0,0,0,0,0,0,0,0
702,526,506,703.0,1,0,0,0,0,0,0,0,0,0
703,526,506,703.0,1,0,0,0,0,0,0,0,0,0
704,525,506,703.0,1,0,0,0,0,0,0,0,0,0
705,523,507,703.0,1,0,0,0,0,0,0,0,0,0
706,521,508,703.0,1,0,0,0,0,0,0,0,0,0
707,517,509,703.0,1,0,0,0,0,0,0,0,0,0
708,514,510,703.0,1,0,0,0,0,0,0,0,0,0
709,510,510,703.0,1,0,0,0,0,0,0,0,0,0
710,507,512,703.0,1,0,0,0,0,0,0,0,0,0
711,503,513,703.0,1,0,0,0,0,0,0,0,0,0
712,499,514,703.0,1,0,0,0,0,0,0,0,0,0
713,496,515,703.0,1,0,0,0,0,0,0,0,0,0
714,493,516,702.0,1,0,0,0,0,0,0,0,0,0
715,490,517,702.0,1,0,0,0,0,0,0,0,0,0
716,487,517,702.0,1,0,0,0,0,0,0,0,0,0
717,486,517,703.0,1,0,0,0,0,0,0,0,0,0
718,485,517,702.0,1,0,0,0,0,0,0,0,0,0
719,486,516,702.0,1,0,0,0,0,0,0,0,0,0
720,485,516,702.0,1,0,0,0,0,0,0,0,0,0
721,484,517,702.0,1,0,0,0,0,0,0,0,0,0
722,485,517,702.0,1,0,0,0,0,0,0,0,0,0
723,485,517,702.0,1,0,0,0,0,0,0,0,0,0
724,486,516,702.0,1,0,0,0,0,0,0,0,0,0
725,487,515,702.0,1,0,0,0,0,0,0,0,0,0
726,487,515,702.0,1,0,0,0,0,0,0,0,0,0
727,488,515,702.0,1,0,0,0,0,0,0,0,0,0
728,490,515,702.0,1,0,0,0,0,0,0,0,0,0
729,491,515,702.0,1,0,0,0,0,0,0,0,0,0
730,492,515,702.0,1,0,0,0,0,0,0,0,0,0
731,492,515,702.0,1,0,0,0,0,0,0,0,0,0
732,493,516,702.0,1,0,0,0,0,0,0,0,0,0
733,495,516,702.0,1,0,0,0,0,0,0,0,0,0
734,496,516,702.0,1,0,0,0,0,0,0,0,0,0
735,496,514,702.0,1,0,0,0,0,0,0,0,0,0
736,497,513,702.0,1,0,0,0,0,0,0,0,0,0
737,497,513,702.0,1,0,0,0,0,0,0,0,0,0
738,499,513,702.0,1,0,0,0,0,0,0,0,0,0
739,499,514,702.0,1,0,0,0,0,0,0,0,0,0
740,500,514,702.0,1,0,0,0,0,0,0,0,0,0
741,501,514,702.0,1,0,0,0,0,0,0,0,0,0
742,502,514,702.0,1,0,0,0,0,0,0,0,0,0
743,503,513,702.0,1,0,0,0,0,0,0,0,0,0
744,503,513,702.0,1,0,0,0,0,0,0,0,0,0
745,504,513,702.0,1,0,0,0,0,0,0,0,0,0
746,504,514,702.0,1,0,0,0,0,0,0,0,0,0
747,504,514,702.0,1,0,0,0,0,0,0,0,0,0
748,505,513,702.0,1,0,0,0,0,0,0,0,0,0
749,506,513,702.0,1,0,0,0,0,0,0,0,0,0
750,507,512,702.0,1,0,0,0,0,0,0,0,0,0
751,507,511,702.0,1,0,0,0,0,0,0,0,0,0
752,507,512,702.0,1,0,0,0,0,0,0,0,0,0
753,507,513,702.0,1,0,0,0,0,0,0,0,0,0
754,506,513,702.0,1,0,0,0,0,0,0,0,0,0
755,506,513,702.0,1,0,0,0,0,0,0,0,0,0
756,506,513,702.0,1,0,0,0,0,0,0,0,0,0
757,506,513,702.0,1,0,0,0,0,0,0,0,0,0
758,505,513,702.0,1,0,0,0,0,0,0,0,0,0
759,506,513,702.0,1,0,0,0,0,0,0,0,0,0
760,506,513,702.0,1,0,0,0,0,0,0,0,0,0
761,506,512,701.0,1,0,0,0,0,0,0,0,0,0
762,506,513,701.0,1,0,0,0,0,0,0,0,0,0
763,505,513,701.0,1,0,0,0,0,0,0,0,0,0
764,505,512,701.0,1,0,0,0,0,0,0,0,0,0
765,504,512,702.0,1,0,0,0,0,0,0,0,0,0
766,504,512,701.0,1,0,0,0,0,0,0,0,0,0
767,504,513,701.0,1,0,0,0,0,0,0,0,0,0
768,504,512,701.0,1,0,0,0,0,0,0,0,0,0
769,506,513,701.0,1,0,0,0,0,0,0,0,0,0
770,506,512,701.0,1,0,0,0,0,0,0,0,0,0
771,506,511,701.0,1,0,0,0,0,0,0,0,0,0
772,506,512,701.0,1,0,0,0,0,0,0,0,0,0
773,505,512,701.0,1,0,0,0,0,0,0,0,0,0
774,506,511,701.0,1,0,0,0,0,0,0,0,0,0
775,506,511,701.0,1,0,0,0,0,0,0,0,0,0
776,506,512,701.0,1,0,0,0,0,0,0,0,0,0
777,506,513,701.0,1,0,0,0,0,0,0,0,0,0
778,506,512,701.0,1,0,0,0,0,0,0,0,0,0
779,506,512,701.0,1,0,0,0,0,0,0,0,0,0
780,507,513,701.0,1,0,0,0,0,0,0,0,0,0
781,507,513,701.0,1,0,0,0,0,0,0,0,0,0
782,507,512,701.0,1,0,0,0,0,0,0,0,0,0
783,508,512,701.0,1,0,0,0,0,0,0,0,0,0
784,507,512,701.0,1,0,0,0,0,0,0,0,0,0
785,508,512,701.0,1,0,0,0,0,0,0,0,0,0
786,507,511,701.0,1,0,0,0,0,0,0,0,0,0
787,507,512,701.0,1,0,0,0,0,0,0,0,0,0
788,508,512,701.0,1,0,0,0,0,0,0,0,0,0
789,509,511,701.0,1,0,0,0,0,0,0,0,0,0
790,511,509,701.0,1,0,0,0,0,0,0,0,0,0
791,513,508,701.0,1,0,0,0,0,0,0,0,0,0
792,514,508,701.0,1,0,0,0,0,0,0,0,0,0
793,516,507,701.0,1,0,0,0,0,0,0,0,0,0
794,518,507,701.0,1,0,0,0,0,0,0,0,0,0
795,520,507,701.0,1,0,0,0,0,0,0,0,0,0
796,521,507,701.0,1,0,0,0,0,0,0,0,0,0
797,523,507,701.0,1,0,0,0,0,0,0,0,0,0
798,524,506,701.0,1,0,0,0,0,0,0,0,0,0
799,525,505,701.0,1,0,0,0,0,0,0,0,0,0
800,525,506,701.0,1,0,0,0,0,0,0,0,0,0
801,523,506,700.0,1,0,0,0,0,0,0,0,0,0
802,521,507,700.0,1,0,0,0,0,0,0,0,0,0
803,518,508,701.0,1,0,0,0,0,0,0,0,0,0
804,516,508,700.0,1,0,0,0,0,0,0,0,0,0
805,516,508,700.0,1,0,0,0,0,0,0,0,0,0
806,514,507,700.0,1,0,0,0,0,0,0,0,0,0
807,510,508,700.0,1,0,0,0,0,0,0,0,0,0
808,507,508,700.0,1,0,0,0,0,0,0,0,0,0
809,504,509,700.0,1,0,0,0,0,0,0,0,0,0
810,503,511,700.0,1,0,0,0,0,0,0,0,0,0
811,503,512,700.0,1,0,0,0,0,0,0,0,0,0
812,502,512,700.0,1,0,0,0,0,0,0,0,0,0
813,501,512,700.0,1,0,0,0,0,0,0,0,0,0
814,501,512,700.0,1,0,0,0,0,0,0,0,0,0
815,501,513,700.0,1,0,0,0,0,0,0,0,0,0
816,502,513,700.0,1,0,0,0,0,0,0,0,0,0
817,502,513,700.0,1,0,0,0,0,0,0,0,0,0
818,502,513,700.0,1,0,0,0,0,0,0,0,0,0
819,502,513,700.0,1,0,0,0,0,0,0,0,0,0
820,503,513,700.0,1,0,0,0,0,0,0,0,0,0
821,503,513,700.0,1,0,0,0,0,0,0,0,0,0
822,503,512,700.0,1,0,0,0,0,0,0,0,0,0
823,503,513,700.0,1,0,0,0,0,0,0,0,0,0
824,502,513,700.0,1,0,0,0,0,0,0,0,0,0
825,497,513,700.0,1,0,0,0,0,0,0,0,0,0
826,489,512,700.0,1,0,0,0,0,0,0,0,0,0
827,487,511,700.0,1,0,0,0,0,0,0,0,0,0
828,497,510,700.0,1,0,0,0,0,0,0,0,0,0
829,510,506,700.0,1,0,0,0,0,0,0,0,0,0
830,527,501,700.0,1,0,0,0,0,0,0,0,0,0
831,558,496,700.0,1,0,0,0,0,0,0,0,0,0
832,603,492,700.0,1,0,0,0,0,0,0,0,0,0
833,658,489,700.0,1,0,0,0,0,0,0,0,0,0
834,703,489,699.0,1,0,0,0,0,0,0,0,0,0
835,700,493,700.0,1,0,0,0,0,0,0,0,0,0
836,663,501,699.0,1,0,0,0,0,0,0,0,0,0
837,609,512,699.0,1,0,0,0,0,0,0,0,0,0
838,560,519,699.0,1,0,0,0,0,0,0,0,0,0
839,520,521,699.0,1,0,0,0,0,0,0,0,0,0
840,492,521,699.0,1,0,0,0,0,0,0,0,0,0
841,478,519,699.0,1,0,0,0,0,0,0,0,0,0
842,472,517,699.0,1,0,0,0,0,0,0,0,0,0
843,470,514,699.0,1,0,0,0,0,0,0,0,0,0
844,470,514,699.0,1,0,0,0,0,0,0,0,0,0
845,469,512,699.0,1,0,0,0,0,0,0,0,0,0
846,470,512,699.0,1,0,0,0,0,0,0,0,0,0
847,471,512,699.0,1,0,0,0,0,0,0,0,0,0
848,473,512,699.0,1,0,0,0,0,0,0,0,0,0
849,474,511,699.0,1,0,0,0,0,0,0,0,0,0
850,475,511,699.0,1,0,0,0,0,0,0,0,0,0
851,476,512,699.0,1,0,0,0,0,0,0,0,0,0
852,477,511,699.0,1,0,0,0,0,0,0,0,0,0
853,478,510,699.0,1,0,0,0,0,0,0,0,0,0
854,480,510,699.0,1,0,0,0,0,0,0,0,0,0
855,481,510,699.0,1,0,0,0,0,0,0,0,0,0
856,483,510,699.0,1,0,0,0,0,0,0,0,0,0
857,485,510,699.0,1,0,0,0,0,0,0,0,0,0
858,487,510,699.0,1,0,0,0,0,0,0,0,0,0
859,488,509,699.0,1,0,0,0,0,0,0,0,0,0
860,490,509,699.0,1,0,0,0,0,0,0,0,0,0
861,491,509,699.0,1,0,0,0,0,0,0,0,0,0
862,492,510,698.0,1,0,0,0,0,0,0,0,0,0
863,493,511,698.0,1,0,0,0,0,0,0,0,0,0
864,494,511,698.0,1,0,0,0,0,0,0,0,0,0
865,494,511,698.0,1,0,0,0,0,0,0,0,0,0
866,495,510,698.0,1,0,0,0,0,0,0,0,0,0
867,496,510,698.0,1,0,0,0,0,0,0,0,0,0
868,497,510,698.0,1,0,0,0,0,0,0,0,0,0
869,499,511,698.0,1,0,0,0,0,0,0,0,0,0
870,500,510,698.0,1,0,0,0,0,0,0,0,0,0
871,501,509,698.0,1,0,0,0,0,0,0,0,0,0
872,502,508,698.0,1,0,0,0,0,0,0,0,0,0
873,503,508,698.0,1,0,0,0,0,0,0,0,0,0
874,505,508,698.0,1,0,0,0,0,0,0,0,0,0
875,506,508,698.0,1,0,0,0,0,0,0,0,0,0
876,507,508,698.0,1,0,0,0,0,0,0,0,0,0
877,508,509,698.0,1,0,0,0,0,0,0,0,0,0
878,509,510,698.0,1,0,0,0,0,0,0,0,0,0
879,510,509,698.0,1,0,0,0,0,0,0,0,0,0
880,511,508,698.0,1,0,0,0,0,0,0,0,0,0
881,512,507,698.0,1,0,0,0,0,0,0,0,0,0
882,513,506,698.0,1,0,0,0,0,0,0,0,0,0
883,513,506,698.0,1,0,0,0,0,0,0,0,0,0
884,514,507,698.0,1,0,0,0,0,0,0,0,0,0
885,516,507,698.0,1,0,0,0,0,0,0,0,0,0
886,517,507,698.0,1,0,0,0,0,0,0,0,0,0
887,519,506,698.0,1,0,0,0,0,0,0,0,0,0
888,520,505,698.0,1,0,0,0,0,0,0,0,0,0
889,522,505,698.0,1,0,0,0,0,0,0,0,0,0
890,522,504,698.0,1,0,0,0,0,0,0,0,0,0
891,523,504,698.0,1,0,0,0,0,0,0,0,0,0
892,524,504,698.0,1,0,0,0,0,0,0,0,0,0
893,525,504,698.0,1,0,0,0,0,0,0,0,0,0
894,526,504,698.0,1,0,0,0,0,0,0,0,0,0
895,527,503,698.0,1,0,0,0,0,0,0,0,0,0
896,527,502,698.0,1,0,0,0,0,0,0,0,0,0
897,528,502,698.0,1,0,0,0,0,0,0,0,0,0
898,528,503,698.0,1,0,0,0,0,0,0,0,0,0
899,528,503,697.0,1,0,0,0,0,0,0,0,0,0
900,528,503,698.0,1,0,0,0,0,0,0,0,0,0
901,527,503,698.0,1,0,0,0,0,0,0,0,0,0
902,527,503,698.0,1,0,0,0,0,0,0,0,0,0
903,527,504,697.0,1,0,0,0,0,0,0,0,0,0
904,527,505,697.0,1,0,0,0,0,0,0,0,0,0
905,526,505,697.0,1,0,0,0,0,0,0,0,0,0
906,525,505,697.0,1,0,0,0,0,0,0,0,0,0
907,524,505,697.0,1,0,0,0,0,0,0,0,0,0
908,522,506,697.0,1,0,0,0,0,0,0,0,0,0
909,519,507,697.0,1,0,0,0,0,0,0,0,0,0
910,516,509,697.0,1,0,0,0,0,0,0,0,0,0
911,512,510,697.0,1,0,0,0,0,0,0,0,0,0
912,508,511,697.0,1,0,0,0,0,0,0,0,0,0
913,504,511,697.0,1,0,0,0,0,0,0,0,0,0
914,500,512,697.0,1,0,0,0,0,0,0,0,0,0
915,497,513,697.0,1,0,0,0,0,0,0,0,0,0
916,494,513,697.0,1,0,0,0,0,0,0,0,0,0
917,491,514,697.0,1,0,0,0,0,0,0,0,0,0
918,489,515,697.0,1,0,0,0,0,0,0,0,0,0
919,488,516,697.0,1,0,0,0,0,0,0,0,0,0
920,487,516,697.0,1,0,0,0,0,0,0,0,0,0
921,485,515,697.0,1,0,0,0,0,0,0,0,0,0
922,485,514,697.0,1,0,0,0,0,0,0,0,0,0
923,485,514,697.0,1,0,0,0,0,0,0,0,0,0
924,485,514,697.0,1,0,0,0,0,0,0,0,0,0
925,485,515,697.0,1,0,0,0,0,0,0,0,0,0
926,486,516,697.0,1,0,0,0,0,0,0,0,0,0
927,487,517,697.0,1,0,0,0,0,0,0,0,0,0
928,488,517,697.0,1,0,0,0,0,0,0,0,0,0
929,488,517,697.0,1,0,0,0,0,0,0,0,0,0
930,490,518,697.0,1,0,0,0,0,0,0,0,0,0
931,492,517,697.0,1,0,0,0,0,0,0,0,0,0
932,493,516,697.0,1,0,0,0,0,0,0,0,0,0
933,494,516,697.0,1,0,0,0,0,0,0,0,0,0
934,495,516,697.0,1,0,0,0,0,0,0,0,0,0
935,496,516,697.0,1,0,0,0,0,0,0,0,0,0
936,497,514,697.0,1,0,0,0,0,0,0,0,0,0
937,497,513,696.0,1,0,0,0,0,0,0,0,0,0
938,498,513,696.0,1,0,0,0,0,0,0,0,0,0
939,500,513,696.0,1,0,0,0,0,0,0,0,0,0
940,501,512,696.0,1,0,0,0,0,0,0,0,0,0
941,501,512,696.0,1,0,0,0,0,0,0,0,0,0
942,503,512,696.0,1,0,0,0,0,0,0,0,0,0
943,503,512,696.0,1,0,0,0,0,0,0,0,0,0
944,504,512,696.0,1,0,0,0,0,0,0,0,0,0
945,504,512,696.0,1,0,0,0,0,0,0,0,0,0
946,505,512,696.0,1,0,0,0,0,0,0,0,0,0
947,506,512,696.0,1,0,0,0,0,0,0,0,0,0
948,506,511,696.0,1,0,0,0,0,0,0,0,0,0
949,506,511,696.0,1,0,0,0,0,0,0,0,0,0
950,507,511,696.0,1,0,0,0,0,0,0,0,0,0
951,507,512,696.0,1,0,0,0,0,0,0,0,0,0
952,507,512,696.0,1,0,0,0,0,0,0,0,0,0
953,507,512,696.0,1,0,0,0,0,0,0,0,0,0
954,507,512,696.0,1,0,0,0,0,0,0,0,0,0
955,507,512,696.0,1,0,0,0,0,0,0,0,0,0
956,507,512,696.0,1,0,0,0,0,0,0,0,0,0
957,507,512,696.0,1,0,0,0,0,0,0,0,0,0
958,507,512,696.0,1,0,0,0,0,0,0,0,0,0
959,507,512,696.0,1,0,0,0,0,0,0,0,0,0
960,508,512,696.0,1,0,0,0,0,0,0,0,0,0
961,508,511,696.0,1,0,0,0,0,0,0,0,0,0
962,508,512,696.0,1,0,0,0,0,0,0,0,0,0
963,508,512,696.0,1,0,0,0,0,0,0,0,0,0
964,507,512,696.0,1,0,0,0,0,0,0,0,0,0
965,507,511,696.0,1,0,0,0,0,0,0,0,0,0
966,508,511,696.0,1,0,0,0,0,0,0,0,0,0
967,508,512,696.0,1,0,0,0,0,0,0,0,0,0
968,508,512,696.0,1,0,0,0,0,0,0,0,0,0
969,507,511,696.0,1,0,0,0,0,0,0,0,0,0
970,507,511,696.0,1,0,0,0,0,0,0,0,0,0
971,507,511,696.0,1,0,0,0,0,0,0,0,0,0
972,508,512,695.0,1,0,0,0,0,0,0,0,0,0
973,508,512,696.0,1,0,0,0,0,0,0,0,0,0
974,508,511,695.0,1,0,0,0,0,0,0,0,0,0
975,508,511,696.0,1,0,0,0,0,0,0,0,0,0
976,508,511,695.0,1,0,0,0,0,0,0,0,0,0
977,508,512,695.0,1,0,0,0,0,0,0,0,0,0
978,508,512,696.0,1,0,0,0,0,0,0,0,0,0
979,508,512,695.0,1,0,0,0,0,0,0,0,0,0
980,508,511,695.0,1,0,0,0,0,0,0,0,0,0
981,508,511,695.0,1,0,0,0,0,0,0,0,0,0
982,509,511,695.0,1,0,0,0,0,0,0,0,0,0
983,509,512,695.0,1,0,0,0,0,0,0,0,0,0
984,509,512,695.0,1,0,0,0,0,0,0,0,0,0
985,509,512,695.0,1,0,0,0,0,0,0,0,0,0
986,509,511,695.0,1,0,0,0,0,0,0,0,0,0
987,508,511,695.0,1,0,0,0,0,0,0,0,0,0
988,509,511,695.0,1,0,0,0,0,0,0,0,0,0
989,508,511,695.0,1,0,0,0,0,0,0,0,0,0
990,509,511,695.0,1,0,0,0,0,0,0,0,0,0
991,510,511,695.0,1,0,0,0,0,0,0,0,0,0
992,510,511,695.0,1,0,0,0,0,0,0,0,0,0
993,510,511,695.0,1,0,0,0,0,0,0,0,0,0
994,510,511,695.0,1,0,0,0,0,0,0,0,0,0
995,510,510,695.0,1,0,0,0,0,0,0,0,0,0
996,510,509,695.0,1,0,0,0,0,0,0,0,0,0
997,511,509,695.0,1,0,0,0,0,0,0,0,0,0
998,512,509,695.0,1,0,0,0,0,0,0,0,0,0
999,513,508,695.0,1,0,0,0,0,0,0,0,0,0
1000,514,507,695.0,1,0,0,0,0,0,0,0,0,0
1001,516,507,695.0,1,0,0,0,0,0,0,0,0,0
1002,518,507,695.0,1,0,0,0,0,0,0,0,0,0
1003,520,507,695.0,1,0,0,0,0,0,0,0,0,0
1004,521,507,695.0,1,0,0,0,0,0,0,0,0,0
1005,523,507,695.0,1,0,0,0,0,0,0,0,0,0
1006,526,507,695.0,1,0,0,0,0,0,0,0,0,0
1007,527,507,695.0,1,0,0,0,0,0,0,0,0,0
1008,528,507,695.0,1,0,0,0,0,0,0,0,0,0
1009,526,507,695.0,1,0,0,0,0,0,0,0,0,0
1010,523,507,695.0,1,0,0,0,0,0,0,0,0,0
1011,520,507,695.0,1,0,0,0,0,0,0,0,0,0
1012,516,508,695.0,1,0,0,0,0,0,0,0,0,0
1013,515,508,695.0,1,0,0,0,0,0,0,0,0,0
1014,514,508,695.0,1,0,0,0,0,0,0,0,0,0
1015,512,510,695.0,1,0,0,0,0,0,0,0,0,0
1016,510,511,695.0,1,0,0,0,0,0,0,0,0,0
1017,507,512,695.0,1,0,0,0,0,0,0,0,0,0
1018,504,512,695.0,1,0,0,0,0,0,0,0,0,0
1019,502,512,695.0,1,0,0,0,0,0,0,0,0,0
1020,502,513,695.0,1,0,0,0,0,0,0,0,0,0
1021,502,513,695.0,1,0,0,0,0,0,0,0,0,0
1022,502,513,695.0,1,0,0,0,0,0,0,0,0,0
1023,501,513,695.0,1,0,0,0,0,0,0,0,0,0
1024,502,513,695.0,1,0,0,0,0,0,0,0,0,0
1025,502,513,695.0,1,0,0,0,0,0,0,0,0,0
1026,503,513,695.0,1,0,0,0,0,0,0,0,0,0
1027,503,513,695.0,1,0,0,0,0,0,0,0,0,0
1028,504,514,695.0,1,0,0,0,0,0,0,0,0,0
1029,504,515,695.0,1,0,0,0,0,0,0,0,0,0
1030,504,515,695.0,1,0,0,0,0,0,0,0,0,0
1031,504,515,695.0,1,0,0,0,0,0,0,0,0,0
1032,503,513,695.0,1,0,0,0,0,0,0,0,0,0
1033,498,512,695.0,1,0,0,0,0,0,0,0,0,0
1034,492,511,694.0,1,0,0,0,0,0,0,0,0,0
1035,489,511,694.0,1,0,0,0,0,0,0,0,0,0
1036,497,510,695.0,1,0,0,0,0,0,0,0,0,0
1037,509,506,694.0,1,0,0,0,0,0,0,0,0,0
1038,523,502,694.0,1,0,0,0,0,0,0,0,0,0
1039,551,497,694.0,1,0,0,0,0,0,0,0,0,0
1040,592,493,695.0,1,0,0,0,0,0,0,0,0,0
1041,644,489,694.0,1,0,0,0,0,0,0,0,0,0
1042,687,489,694.0,1,0,0,0,0,0,0,0,0,0
1043,683,492,694.0,1,0,0,0,0,0,0,0,0,0
1044,653,500,695.0,1,0,0,0,0,0,0,0,0,0
1045,607,512,695.0,1,0,0,0,0,0,0,0,0,0
1046,568,520,694.0,1,0,0,0,0,0,0,0,0,0
1047,534,521,694.0,1,0,0,0,0,0,0,0,0,0
1048,505,520,694.0,1,0,0,0,0,0,0,0,0,0
1049,487,518,694.0,1,0,0,0,0,0,0,0,0,0
1050,479,515,694.0,1,0,0,0,0,0,0,0,0,0
1051,474,513,694.0,1,0,0,0,0,0,0,0,0,0
1052,473,512,694.0,1,0,0,0,0,0,0,0,0,0
1053,473,512,694.0,1,0,0,0,0,0,0,0,0,0
1054,473,512,694.0,1,0,0,0,0,0,0,0,0,0
1055,473,511,694.0,1,0,0,0,0,0,0,0,0,0
1056,474,511,694.0,1,0,0,0,0,0,0,0,0,0
1057,475,511,694.0,1,0,0,0,0,0,0,0,0,0
1058,477,511,694.0,1,0,0,0,0,0,0,0,0,0
1059,478,511,694.0,1,0,0,0,0,0,0,0,0,0
1060,479,511,694.0,1,0,0,0,0,0,0,0,0,0
1061,481,511,694.0,1,0,0,0,0,0,0,0,0,0
1062,482,511,694.0,1,0,0,0,0,0,0,0,0,0
1063,484,511,694.0,1,0,0,0,0,0,0,0,0,0
1064,485,511,694.0,1,0,0,0,0,0,0,0,0,0
1065,487,511,694.0,1,0,0,0,0,0,0,0,0,0
1066,488,511,694.0,1,0,0,0,0,0,0,0,0,0
1067,489,510,694.0,1,0,0,0,0,0,0,0,0,0
1068,490,510,694.0,1,0,0,0,0,0,0,0,0,0
1069,490,510,694.0,1,0,0,0,0,0,0,0,0,0
1070,492,510,694.0,1,0,0,0,0,0,0,0,0,0
1071,494,510,694.0,1,0,0,0,0,0,0,0,0,0
1072,495,510,694.0,1,0,0,0,0,0,0,0,0,0
1073,496,510,694.0,1,0,0,0,0,0,0,0,0,0
1074,497,510,694.0,1,0,0,0,0,0,0,0,0,0
1075,499,510,694.0,1,0,0,0,0,0,0,0,0,0
1076,500,509,694.0,1,0,0,0,0,0,0,0,0,0
1077,500,508,694.0,1,0,0,0,0,0,0,0,0,0
1078,501,508,694.0,1,0,0,0,0,0,0,0,0,0
1079,502,509,694.0,1,0,0,0,0,0,0,0,0,0
1080,503,509,694.0,1,0,0,0,0,0,0,0,0,0
1081,503,509,694.0,1,0,0,0,0,0,0,0,0,0
1082,505,507,694.0,1,0,0,0,0,0,0,0,0,0
1083,506,506,694.0,1,0,0,0,0,0,0,0,0,0
1084,506,507,694.0,1,0,0,0,0,0,0,0,0,0
1085,508,508,694.0,1,0,0,0,0,0,0,0,0,0
1086,508,508,694.0,1,0,0,0,0,0,0,0,0,0
1087,509,507,694.0,1,0,0,0,0,0,0,0,0,0
1088,510,505,694.0,1,0,0,0,0,0,0,0,0,0
1089,512,505,694.0,1,0,0,0,0,0,0,0,0,0
1090,513,507,694.0,1,0,0,0,0,0,0,0,0,0
1091,514,508,694.0,1,0,0,0,0,0,0,0,0,0
1092,516,509,694.0,1,0,0,0,0,0,0,0,0,0
1093,516,508,694.0,1,0,0,0,0,0,0,0,0,0
1094,517,507,694.0,1,0,0,0,0,0,0,0,0,0
1095,518,507,694.0,1,0,0,0,0,0,0,0,0,0
1096,519,506,694.0,1,0,0,0,0,0,0,0,0,0
1097,520,506,694.0,1,0,0,0,0,0,0,0,0,0
1098,521,506,694.0,1,0,0,0,0,0,0,0,0,0
1099,522,505,694.0,1,0,0,0,0,0,0,0,0,0
1100,523,504,694.0,1,0,0,0,0,0,0,0,0,0
1101,524,503,694.0,1,0,0,0,0,0,0,0,0,0
1102,525,503,694.0,1,0,0,0,0,0,0,0,0,0
1103,526,503,694.0,1,0,0,0,0,0,0,0,0,0
1104,527,504,694.0,1,0,0,0,0,0,0,0,0,0
1105,527,504,694.0,1,0,0,0,0,0,0,0,0,0
1106,527,503,694.0,1,0,0,0,0,0,0,0,0,0
1107,528,502,694.0,1,0,0,0,0,0,0,0,0,0
1108,528,503,694.0,1,0,0,0,0,0,0,0,0,0
1109,528,504,694.0,1,0,0,0,0,0,0,0,0,0
1110,527,504,694.0,1,0,0,0,0,0,0,0,0,0
1111,527,504,694.0,1,0,0,0,0,0,0,0,0,0
1112,526,504,694.0,1,0,0,0,0,0,0,0,0,0
1113,526,505,694.0,1,0,0,0,0,0,0,0,0,0
1114,525,505,694.0,1,0,0,0,0,0,0,0,0,0
1115,524,506,694.0,1,0,0,0,0,0,0,0,0,0
1116,521,506,694.0,1,0,0,0,0,0,0,0,0,0
1117,519,507,694.0,1,0,0,0,0,0,0,0,0,0
1118,516,508,694.0,1,0,0,0,0,0,0,0,0,0
1119,512,509,694.0,1,0,0,0,0,0,0,0,0,0
1120,509,510,694.0,1,0,0,0,0,0,0,0,0,0
1121,505,512,694.0,1,0,0,0,0,0,0,0,0,0
1122,502,513,694.0,1,0,0,0,0,0,0,0,0,0
1123,499,513,694.0,1,0,0,0,0,0,0,0,0,0
1124,495,514,694.0,1,0,0,0,0,0,0,0,0,0
1125,492,515,694.0,1,0,0,0,0,0,0,0,0,0
1126,490,517,694.0,1,0,0,0,0,0,0,0,0,0
1127,488,516,694.0,1,0,0,0,0,0,0,0,0,0
1128,487,516,694.0,1,0,0,0,0,0,0,0,0,0
1129,486,516,694.0,1,0,0,0,0,0,0,0,0,0
1130,485,517,694.0,1,0,0,0,0,0,0,0,0,0
1131,485,517,694.0,1,0,0,0,0,0,0,0,0,0
1132,485,517,694.0,1,0,0,0,0,0,0,0,0,0
1133,485,517,694.0,1,0,0,0,0,0,0,0,0,0
1134,486,517,694.0,1,0,0,0,0,0,0,0,0,0
1135,487,517,693.0,1,0,0,0,0,0,0,0,0,0
1136,487,517,694.0,1,0,0,0,0,0,0,0,0,0
1137,489,516,693.0,1,0,0,0,0,0,0,0,0,0
1138,490,516,694.0,1,0,0,0,0,0,0,0,0,0
1139,491,515,694.0,1,0,0,0,0,0,0,0,0,0
1140,492,515,694.0,1,0,0,0,0,0,0,0,0,0
1141,493,514,694.0,1,0,0,0,0,0,0,0,0,0
1142,494,514,694.0,1,0,0,0,0,0,0,0,0,0
1143,495,515,693.0,1,0,0,0,0,0,0,0,0,0
1144,497,514,694.0,1,0,0,0,0,0,0,0,0,0
1145,498,514,694.0,1,0,0,0,0,0,0,0,0,0
1146,498,514,694.0,1,0,0,0,0,0,0,0,0,0
1147,499,514,693.0,1,0,0,0,0,0,0,0,0,0
1148,500,514,694.0,1,0,0,0,0,0,0,0,0,0
1149,500,513,693.0,1,0,0,0,0,0,0,0,0,0
1150,501,513,694.0,1,0,0,0,0,0,0,0,0,0
1151,502,513,693.0,1,0,0,0,0,0,0,0,0,0
1152,503,513,694.0,1,0,0,0,0,0,0,0,0,0
1153,503,513,693.0,1,0,0,0,0,0,0,0,0,0
1154,504,512,694.0,1,0,0,0,0,0,0,0,0,0
1155,504,512,693.0,1,0,0,0,0,0,0,0,0,0
1156,504,512,693.0,1,0,0,0,0,0,0,0,0,0
1157,504,512,693.0,1,0,0,0,0,0,0,0,0,0
1158,505,512,694.0,1,0,0,0,0,0,0,0,0,0
1159,505,511,693.0,1,0,0,0,0,0,0,0,0,0
1160,505,511,693.0,1,0,0,0,0,0,0,0,0,0
1161,505,511,693.0,1,0,0,0,0,0,0,0,0,0
1162,505,510,694.0,1,0,0,0,0,0,0,0,0,0
1163,506,511,693.0,1,0,0,0,0,0,0,0,0,0
1164,505,512,693.0,1,0,0,0,0,0,0,0,0,0
1165,504,513,694.0,1,0,0,0,0,0,0,0,0,0
1166,506,513,693.0,1,0,0,0,0,0,0,0,0,0
1167,506,513,693.0,1,0,0,0,0,0,0,0,0,0
1168,504,514,693.0,1,0,0,0,0,0,0,0,0,0
1169,504,513,693.0,1,0,0,0,0,0,0,0,0,0
1170,504,513,693.0,1,0,0,0,0,0,0,0,0,0
1171,504,512,693.0,1,0,0,0,0,0,0,0,0,0
1172,504,512,693.0,1,0,0,0,0,0,0,0,0,0
1173,504,510,693.0,1,0,0,0,0,0,0,0,0,0
1174,504,511,693.0,1,0,0,0,0,0,0,0,0,0
1175,504,511,693.0,1,0,0,0,0,0,0,0,0,0
1176,504,510,693.0,1,0,0,0,0,0,0,0,0,0
1177,504,511,694.0,1,0,0,0,0,0,0,0,0,0
1178,504,512,693.0,1,0,0,0,0,0,0,0,0,0
1179,504,511,693.0,1,0,0,0,0,0,0,0,0,0
1180,504,511,693.0,1,0,0,0,0,0,0,0,0,0
1181,504,512,693.0,1,0,0,0,0,0,0,0,0,0
1182,505,512,693.0,1,0,0,0,0,0,0,0,0,0
1183,504,512,693.0,1,0,0,0,0,0,0,0,0,0
1184,504,512,693.0,1,0,0,0,0,0,0,0,0,0
1185,504,512,693.0,1,0,0,0,0,0,0,0,0,0
1186,505,512,693.0,1,0,0,0,0,0,0,0,0,0
1187,504,512,693.0,1,0,0,0,0,0,0,0,0,0
1188,504,511,693.0,1,0,0,0,0,0,0,0,0,0
1189,505,511,693.0,1,0,0,0,0,0,0,0,0,0
1190,505,512,693.0,1,0,0,0,0,0,0,0,0,0
1191,505,512,693.0,1,0,0,0,0,0,0,0,0,0
1192,505,512,693.0,1,0,0,0,0,0,0,0,0,0
1193,506,511,693.0,1,0,0,0,0,0,0,0,0,0
1194,506,511,693.0,1,0,0,0,0,0,0,0,0,0
1195,506,511,693.0,1,0,0,0,0,0,0,0,0,0
1196,506,512,693.0,1,0,0,0,0,0,0,0,0,0
1197,507,512,693.0,1,0,0,0,0,0,0,0,0,0
1198,506,511,693.0,1,0,0,0,0,0,0,0,0,0
1199,506,511,693.0,1,0,0,0,0,0,0,0,0,0
1200,506,511,693.0,1,0,0,0,0,0,0,0,0,0
1201,506,511,693.0,1,0,0,0,0,0,0,0,0,0
1202,507,511,693.0,1,0,0,0,0,0,0,0,0,0
1203,508,511,693.0,1,0,0,0,0,0,0,0,0,0
1204,509,510,693.0,1,0,0,0,0,0,0,0,0,0
1205,509,509,693.0,1,0,0,0,0,0,0,0,0,0
1206,510,509,693.0,1,0,0,0,0,0,0,0,0,0
1207,513,509,693.0,1,0,0,0,0,0,0,0,0,0
1208,515,509,693.0,1,0,0,0,0,0,0,0,0,0
1209,516,509,693.0,1,0,0,0,0,0,0,0,0,0
1210,517,508,693.0,1,0,0,0,0,0,0,0,0,0
1211,520,508,693.0,1,0,0,0,0,0,0,0,0,0
1212,523,508,693.0,1,0,0,0,0,0,0,0,0,0
1213,524,507,693.0,1,0,0,0,0,0,0,0,0,0
1214,524,507,693.0,1,0,0,0,0,0,0,0,0,0
1215,522,507,693.0,1,0,0,0,0,0,0,0,0,0
1216,520,508,693.0,1,0,0,0,0,0,0,0,0,0
1217,517,508,693.0,1,0,0,0,0,0,0,0,0,0
1218,516,508,693.0,1,0,0,0,0,0,0,0,0,0
1219,515,509,693.0,1,0,0,0,0,0,0,0,0,0
1220,514,509,693.0,1,0,0,0,0,0,0,0,0,0
1221,511,509,693.0,1,0,0,0,0,0,0,0,0,0
1222,508,509,693.0,1,0,0,0,0,0,0,0,0,0
1223,506,510,693.0,1,0,0,0,0,0,0,0,0,0
1224,503,511,693.0,1,0,0,0,0,0,0,0,0,0
1225,501,511,693.0,1,0,0,0,0,0,0,0,0,0
1226,500,511,693.0,1,0,0,0,0,0,0,0,0,0
1227,500,513,693.0,1,0,0,0,0,0,0,0,0,0
1228,500,513,693.0,1,0,0,0,0,0,0,0,0,0
1229,501,513,693.0,1,0,0,0,0,0,0,0,0,0
1230,501,512,693.0,1,0,0,0,0,0,0,0,0,0
1231,501,512,693.0,1,0,0,0,0,0,0,0,0,0
1232,501,512,693.0,1,0,0,0,0,0,0,0,0,0
1233,502,512,693.0,1,0,0,0,0,0,0,0,0,0
1234,502,511,693.0,1,0,0,0,0,0,0,0,0,0
1235,502,510,693.0,1,0,0,0,0,0,0,0,0,0
1236,503,511,693.0,1,0,0,0,0,0,0,0,0,0
1237,503,513,693.0,1,0,0,0,0,0,0,0,0,0
1238,501,513,693.0,1,0,0,0,0,0,0,0,0,0
1239,497,513,693.0,1,0,0,0,0,0,0,0,0,0
1240,489,513,693.0,1,0,0,0,0,0,0,0,0,0
1241,486,513,693.0,1,0,0,0,0,0,0,0,0,0
1242,495,512,693.0,1,0,0,0,0,0,0,0,0,0
1243,507,508,693.0,1,0,0,0,0,0,0,0,0,0
1244,522,504,693.0,1,0,0,0,0,0,0,0,0,0
1245,551,498,693.0,1,0,0,0,0,0,0,0,0,0
1246,589,493,693.0,1,0,0,0,0,0,0,0,0,0
1247,637,491,693.0,1,0,0,0,0,0,0,0,0,0
1248,675,491,693.0,1,0,0,0,0,0,0,0,0,0
1249,664,494,693.0,1,0,0,0,0,0,0,0,0,0
1250,629,504,693.0,1,0,0,0,0,0,0,0,0,0
1251,584,514,693.0,1,0,0,0,0,0,0,0,0,0
1252,552,520,693.0,1,0,0,0,0,0,0,0,0,0
1253,527,521,693.0,1,0,0,0,0,0,0,0,0,0
1254,504,521,693.0,1,0,0,0,0,0,0,0,0,0
1255,486,520,693.0,1,0,0,0,0,0,0,0,0,0
1256,478,517,693.0,1,0,0,0,0,0,0,0,0,0
1257,474,515,693.0,1,0,0,0,0,0,0,0,0,0
1258,473,513,693.0,1,0,0,0,0,0,0,0,0,0
1259,474,513,693.0,1,0,0,0,0,0,0,0,0,0
1260,476,512,693.0,1,0,0,0,0,0,0,0,0,0
1261,477,512,693.0,1,0,0,0,0,0,0,0,0,0
1262,478,512,693.0,1,0,0,0,0,0,0,0,0,0
1263,479,512,693.0,1,0,0,0,0,0,0,0,0,0
1264,480,512,693.0,1,0,0,0,0,0,0,0,0,0
1265,481,512,693.0,1,0,0,0,0,0,0,0,0,0
1266,482,511,693.0,1,0,0,0,0,0,0,0,0,0
1267,483,512,693.0,1,0,0,0,0,0,0,0,0,0
1268,485,512,693.0,1,0,0,0,0,0,0,0,0,0
1269,486,511,693.0,1,0,0,0,0,0,0,0,0,0
1270,488,511,693.0,1,0,0,0,0,0,0,0,0,0
1271,489,511,692.0,1,0,0,0,0,0,0,0,0,0
1272,491,511,693.0,1,0,0,0,0,0,0,0,0,0
1273,492,511,693.0,1,0,0,0,0,0,0,0,0,0
1274,493,511,693.0,1,0,0,0,0,0,0,0,0,0
1275,493,511,693.0,1,0,0,0,0,0,0,0,0,0
1276,494,510,693.0,1,0,0,0,0,0,0,0,0,0
1277,495,510,693.0,1,0,0,0,0,0,0,0,0,0
1278,496,510,693.0,1,0,0,0,0,0,0,0,0,0
1279,497,510,693.0,1,0,0,0,0,0,0,0,0,0
1280,498,510,693.0,1,0,0,0,0,0,0,0,0,0
1281,499,510,692.0,1,0,0,0,0,0,0,0,0,0
1282,500,510,693.0,1,0,0,0,0,0,0,0,0,0
1283,502,509,692.0,1,0,0,0,0,0,0,0,0,0
1284,503,509,692.0,1,0,0,0,0,0,0,0,0,0
1285,503,508,692.0,1,0,0,0,0,0,0,0,0,0
1286,504,508,692.0,1,0,0,0,0,0,0,0,0,0
1287,504,508,692.0,1,0,0,0,0,0,0,0,0,0
1288,505,509,693.0,1,0,0,0,0,0,0,0,0,0
1289,507,508,692.0,1,0,0,0,0,0,0,0,0,0
1290,508,508,692.0,1,0,0,0,0,0,0,0,0,0
1291,509,508,692.0,1,0,0,0,0,0,0,0,0,0
1292,511,507,692.0,1,0,0,0,0,0,0,0,0,0
1293,511,507,692.0,1,0,0,0,0,0,0,0,0,0
1294,512,507,692.0,1,0,0,0,0,0,0,0,0,0
1295,513,507,692.0,1,0,0,0,0,0,0,0,0,0
1296,514,507,692.0,1,0,0,0,0,0,0,0,0,0
1297,515,506,692.0,1,0,0,0,0,0,0,0,0,0
1298,516,505,692.0,1,0,0,0,0,0,0,0,0,0
1299,517,504,692.0,1,0,0,0,0,0,0,0,0,0
1300,519,504,692.0,1,0,0,0,0,0,0,0,0,0
1301,520,504,692.0,1,0,0,0,0,0,0,0,0,0
1302,520,503,692.0,1,0,0,0,0,0,0,0,0,0
1303,521,503,692.0,1,0,0,0,0,0,0,0,0,0
1304,522,503,692.0,1,0,0,0,0,0,0,0,0,0
1305,523,503,692.0,1,0,0,0,0,0,0,0,0,0
1306,523,502,692.0,1,0,0,0,0,0,0,0,0,0
1307,525,502,692.0,1,0,0,0,0,0,0,0,0,0
1308,526,502,692.0,1,0,0,0,0,0,0,0,0,0
1309,528,502,692.0,1,0,0,0,0,0,0,0,0,0
1310,528,503,692.0,1,0,0,0,0,0,0,0,0,0
1311,529,502,692.0,1,0,0,0,0,0,0,0,0,0
1312,528,503,693.0,1,0,0,0,0,0,0,0,0,0
1313,528,503,693.0,1,0,0,0,0,0,0,0,0,0
1314,529,503,692.0,1,0,0,0,0,0,0,0,0,0
1315,529,503,692.0,1,0,0,0,0,0,0,0,0,0
1316,529,504,692.0,1,0,0,0,0,0,0,0,0,0
1317,528,504,692.0,1,0,0,0,0,0,0,0,0,0
1318,527,504,692.0,1,0,0,0,0,0,0,0,0,0
1319,527,506,692.0,1,0,0,0,0,0,0,0,0,0
1320,526,507,692.0,1,0,0,0,0,0,0,0,0,0
1321,525,507,692.0,1,0,0,0,0,0,0,0,0,0
1322,523,508,692.0,1,0,0,0,0,0,0,0,0,0
1323,520,509,692.0,1,0,0,0,0,0,0,0,0,0
1324,517,509,692.0,1,0,0,0,0,0,0,0,0,0
1325,513,511,692.0,1,0,0,0,0,0,0,0,0,0
1326,508,512,692.0,1,0,0,0,0,0,0,0,0,0
1327,504,513,692.0,1,0,0,0,0,0,0,0,0,0
1328,500,514,692.0,1,0,0,0,0,0,0,0,0,0
1329,496,514,692.0,1,0,0,0,0,0,0,0,0,0
1330,493,515,692.0,1,0,0,0,0,0,0,0,0,0
1331,490,515,692.0,1,0,0,0,0,0,0,0,0,0
1332,488,518,692.0,1,0,0,0,0,0,0,0,0,0
1333,486,518,692.0,1,0,0,0,0,0,0,0,0,0
1334,484,519,692.0,1,0,0,0,0,0,0,0,0,0
1335,483,519,692.0,1,0,0,0,0,0,0,0,0,0
1336,482,518,692.0,1,0,0,0,0,0,0,0,0,0
1337,482,518,692.0,1,0,0,0,0,0,0,0,0,0
1338,481,518,692.0,1,0,0,0,0,0,0,0,0,0
1339,482,518,692.0,1,0,0,0,0,0,0,0,0,0
1340,483,518,692.0,1,0,0,0,0,0,0,0,0,0
1341,483,518,692.0,1,0,0,0,0,0,0,0,0,0
1342,484,518,692.0,1,0,0,0,0,0,0,0,0,0
1343,484,518,692.0,1,0,0,0,0,0,0,0,0,0
1344,486,517,692.0,1,0,0,0,0,0,0,0,0,0
1345,488,517,692.0,1,0,0,0,0,0,0,0,0,0
1346,489,517,692.0,1,0,0,0,0,0,0,0,0,0
1347,490,516,692.0,1,0,0,0,0,0,0,0,0,0
1348,491,516,692.0,1,0,0,0,0,0,0,0,0,0
1349,493,516,692.0,1,0,0,0,0,0,0,0,0,0
1350,494,516,692.0,1,0,0,0,0,0,0,0,0,0
1351,496,515,692.0,1,0,0,0,0,0,0,0,0,0
1352,496,515,692.0,1,0,0,0,0,0,0,0,0,0
1353,497,515,692.0,1,0,0,0,0,0,0,0,0,0
1354,497,515,692.0,1,0,0,0,0,0,0,0,0,0
1355,498,514,692.0,1,0,0,0,0,0,0,0,0,0
1356,499,515,692.0,1,0,0,0,0,0,0,0,0,0
1357,500,514,692.0,1,0,0,0,0,0,0,0,0,0
1358,501,514,692.0,1,0,0,0,0,0,0,0,0,0
1359,502,515,692.0,1,0,0,0,0,0,0,0,0,0
1360,503,515,692.0,1,0,0,0,0,0,0,0,0,0
1361,503,514,692.0,1,0,0,0,0,0,0,0,0,0
1362,503,513,692.0,1,0,0,0,0,0,0,0,0,0
1363,504,512,692.0,1,0,0,0,0,0,0,0,0,0
1364,504,513,692.0,1,0,0,0,0,0,0,0,0,0
1365,503,513,692.0,1,0,0,0,0,0,0,0,0,0
1366,504,513,692.0,1,0,0,0,0,0,0,0,0,0
1367,504,512,692.0,1,0,0,0,0,0,0,0,0,0
1368,504,512,692.0,1,0,0,0,0,0,0,0,0,0
1369,504,513,692.0,1,0,0,0,0,0,0,0,0,0
1370,504,512,692.0,1,0,0,0,0,0,0,0,0,0
1371,504,511,692.0,1,0,0,0,0,0,0,0,0,0
1372,505,511,692.0,1,0,0,0,0,0,0,0,0,0
1373,505,511,692.0,1,0,0,0,0,0,0,0,0,0
1374,506,509,692.0,1,0,0,0,0,0,0,0,0,0
1375,506,509,693.0,1,0,0,0,0,0,0,0,0,0
1376,505,513,692.0,1,0,0,0,0,0,0,0,0,0
1377,504,515,692.0,1,0,0,0,0,0,0,0,0,0
1378,504,517,692.0,1,0,0,0,0,0,0,0,0,0
1379,504,517,692.0,1,0,0,0,0,0,0,0,0,0
1380,504,516,692.0,1,0,0,0,0,0,0,0,0,0
1381,505,515,692.0,1,0,0,0,0,0,0,0,0,0
1382,505,514,692.0,1,0,0,0,0,0,0,0,0,0
1383,505,513,692.0,1,0,0,0,0,0,0,0,0,0
1384,505,512,692.0,1,0,0,0,0,0,0,0,0,0
1385,505,512,692.0,1,0,0,0,0,0,0,0,0,0
1386,505,511,692.0,1,0,0,0,0,0,0,0,0,0
1387,505,511,693.0,1,0,0,0,0,0,0,0,0,0
1388,505,512,692.0,1,0,0,0,0,0,0,0,0,0
1389,505,511,692.0,1,0,0,0,0,0,0,0,0,0
1390,506,511,692.0,1,0,0,0,0,0,0,0,0,0
1391,506,511,692.0,1,0,0,0,0,0,0,0,0,0
1392,506,512,692.0,1,0,0,0,0,0,0,0,0,0
1393,506,513,692.0,1,0,0,0,0,0,0,0,0,0
1394,506,514,692.0,1,0,0,0,0,0,0,0,0,0
1395,505,514,692.0,1,0,0,0,0,0,0,0,0,0
1396,506,513,692.0,1,0,0,0,0,0,0,0,0,0
1397,507,512,692.0,1,0,0,0,0,0,0,0,0,0
1398,508,512,693.0,1,0,0,0,0,0,0,0,0,0
1399,510,513,692.0,1,0,0,0,0,0,0,0,0,0
1400,511,513,692.0,1,0,0,0,0,0,0,0,0,0
1401,513,512,692.0,1,0,0,0,0,0,0,0,0,0
1402,515,511,692.0,1,0,0,0,0,0,0,0,0,0
1403,517,510,692.0,1,0,0,0,0,0,0,0,0,0
1404,519,509,692.0,1,0,0,0,0,0,0,0,0,0
1405,520,510,692.0,1,0,0,0,0,0,0,0,0,0
1406,522,510,692.0,1,0,0,0,0,0,0,0,0,0
1407,525,509,692.0,1,0,0,0,0,0,0,0,0,0
1408,525,509,692.0,1,0,0,0,0,0,0,0,0,0
1409,525,508,692.0,1,0,0,0,0,0,0,0,0,0
1410,524,508,693.0,1,0,0,0,0,0,0,0,0,0
1411,522,509,692.0,1,0,0,0,0,0,0,0,0,0
1412,519,509,692.0,1,0,0,0,0,0,0,0,0,0
1413,518,509,692.0,1,0,0,0,0,0,0,0,0,0
1414,517,509,693.0,1,0,0,0,0,0,0,0,0,0
1415,516,509,692.0,1,0,0,0,0,0,0,0,0,0
1416,513,510,692.0,1,0,0,0,0,0,0,0,0,0
1417,511,511,692.0,1,0,0,0,0,0,0,0,0,0
1418,508,513,693.0,1,0,0,0,0,0,0,0,0,0
1419,505,514,692.0,1,0,0,0,0,0,0,0,0,0
1420,504,514,692.0,1,0,0,0,0,0,0,0,0,0
1421,504,514,692.0,1,0,0,0,0,0,0,0,0,0
1422,503,513,692.0,1,0,0,0,0,0,0,0,0,0
1423,503,514,692.0,1,0,0,0,0,0,0,0,0,0
1424,503,514,692.0,1,0,0,0,0,0,0,0,0,0
1425,503,514,692.0,1,0,0,0,0,0,0,0,0,0
1426,504,515,693.0,1,0,0,0,0,0,0,0,0,0
1427,505,514,692.0,1,0,0,0,0,0,0,0,0,0
1428,505,514,692.0,1,0,0,0,0,0,0,0,0,0
1429,506,514,692.0,1,0,0,0,0,0,0,0,0,0
1430,505,514,693.0,1,0,0,0,0,0,0,0,0,0
1431,506,514,692.0,1,0,0,0,0,0,0,0,0,0
1432,505,514,692.0,1,0,0,0,0,0,0,0,0,0
1433,504,513,692.0,1,0,0,0,0,0,0,0,0,0
1434,500,513,692.0,1,0,0,0,0,0,0,0,0,0
1435,494,513,692.0,1,0,0,0,0,0,0,0,0,0
1436,491,512,693.0,1,0,0,0,0,0,0,0,0,0
1437,498,510,692.0,1,0,0,0,0,0,0,0,0,0
1438,511,505,692.0,1,0,0,0,0,0,0,0,0,0
1439,526,500,693.0,1,0,0,0,0,0,0,0,0,0
1440,553,497,692.0,1,0,0,0,0,0,0,0,0,0
1441,590,496,692.0,1,0,0,0,0,0,0,0,0,0
1442,634,494,692.0,1,0,0,0,0,0,0,0,0,0
1443,671,494,692.0,1,0,0,0,0,0,0,0,0,0
1444,657,497,693.0,1,0,0,0,0,0,0,0,0,0
1445,616,506,692.0,1,0,0,0,0,0,0,0,0,0
1446,573,515,693.0,1,0,0,0,0,0,0,0,0,0
1447,545,520,693.0,1,0,0,0,0,0,0,0,0,0
1448,528,520,693.0,1,0,0,0,0,0,0,0,0,0
1449,510,519,693.0,1,0,0,0,0,0,0,0,0,0
1450,493,519,693.0,1,0,0,0,0,0,0,0,0,0
1451,485,518,692.0,1,0,0,0,0,0,0,0,0,0
1452,480,516,693.0,1,0,0,0,0,0,0,0,0,0
1453,479,514,692.0,1,0,0,0,0,0,0,0,0,0
1454,480,512,693.0,1,0,0,0,0,0,0,0,0,0
1455,482,510,692.0,1,0,0,0,0,0,0,0,0,0
1456,483,511,692.0,1,0,0,0,0,0,0,0,0,0
1457,484,510,692.0,1,0,0,0,0,0,0,0,0,0
1458,485,509,692.0,1,0,0,0,0,0,0,0,0,0
1459,486,510,692.0,1,0,0,0,0,0,0,0,0,0
1460,487,511,693.0,1,0,0,0,0,0,0,0,0,0
1461,488,512,692.0,1,0,0,0,0,0,0,0,0,0
1462,489,512,692.0,1,0,0,0,0,0,0,0,0,0
1463,491,512,693.0,1,0,0,0,0,0,0,0,0,0
1464,492,511,692.0,1,0,0,0,0,0,0,0,0,0
1465,493,510,693.0,1,0,0,0,0,0,0,0,0,0
1466,494,510,693.0,1,0,0,0,0,0,0,0,0,0
1467,495,510,692.0,1,0,0,0,0,0,0,0,0,0
1468,496,510,693.0,1,0,0,0,0,0,0,0,0,0
1469,497,510,692.0,1,0,0,0,0,0,0,0,0,0
1470,498,510,693.0,1,0,0,0,0,0,0,0,0,0
1471,499,510,692.0,1,0,0,0,0,0,0,0,0,0
1472,500,510,693.0,1,0,0,0,0,0,0,0,0,0
1473,501,510,692.0,1,0,0,0,0,0,0,0,0,0
1474,503,510,693.0,1,0,0,0,0,0,0,0,0,0
1475,504,510,693.0,1,0,0,0,0,0,0,0,0,0
1476,505,510,692.0,1,0,0,0,0,0,0,0,0,0
1477,506,510,692.0,1,0,0,0,0,0,0,0,0,0
1478,507,509,692.0,1,0,0,0,0,0,0,0,0,0
1479,508,510,692.0,1,0,0,0,0,0,0,0,0,0
1480,509,510,693.0,1,0,0,0,0,0,0,0,0,0
1481,509,510,692.0,1,0,0,0,0,0,0,0,0,0
1482,510,510,693.0,1,0,0,0,0,0,0,0,0,0
1483,511,509,693.0,1,0,0,0,0,0,0,0,0,0
1484,512,509,692.0,1,0,0,0,0,0,0,0,0,0
1485,513,509,693.0,1,0,0,0,0,0,0,0,0,0
1486,514,509,693.0,1,0,0,0,0,0,0,0,0,0
1487,514,509,693.0,1,0,0,0,0,0,0,0,0,0
1488,515,509,693.0,1,0,0,0,0,0,0,0,0,0
1489,515,508,693.0,1,0,0,0,0,0,0,0,0,0
1490,516,508,692.0,1,0,0,0,0,0,0,0,0,0
1491,518,508,693.0,1,0,0,0,0,0,0,0,0,0
1492,518,507,693.0,1,0,0,0,0,0,0,0,0,0
1493,519,507,692.0,1,0,0,0,0,0,0,0,0,0
1494,520,507,693.0,1,0,0,0,0,0,0,0,0,0
1495,522,507,693.0,1,0,0,0,0,0,0,0,0,0
1496,522,507,693.0,1,0,0,0,0,0,0,0,0,0
1497,523,506,693.0,1,0,0,0,0,0,0,0,0,0
1498,524,505,693.0,1,0,0,0,0,0,0,0,0,0
1499,525,505,693.0,1,0,0,0,0,0,0,0,0,0
1500,527,504,693.0,1,0,0,0,0,0,0,0,0,0
1501,528,503,693.0,1,0,0,0,0,0,0,0,0,0
1502,528,503,693.0,1,0,0,0,0,0,0,0,0,0
1503,529,503,692.0,1,0,0,0,0,0,0,0,0,0
1504,530,502,693.0,1,0,0,0,0,0,0,0,0,0
1505,530,503,692.0,1,0,0,0,0,0,0,0,0,0
1506,531,503,693.0,1,0,0,0,0,0,0,0,0,0
1507,531,503,692.0,1,0,0,0,0,0,0,0,0,0
1508,531,504,693.0,1,0,0,0,0,0,0,0,0,0
1509,531,504,693.0,1,0,0,0,0,0,0,0,0,0
1510,531,505,693.0,1,0,0,0,0,0,0,0,0,0
1511,531,504,693.0,1,0,0,0,0,0,0,0,0,0
1512,530,504,693.0,1,0,0,0,0,0,0,0,0,0
1513,529,504,693.0,1,0,0,0,0,0,0,0,0,0
1514,528,505,693.0,1,0,0,0,0,0,0,0,0,0
1515,527,505,693.0,1,0,0,0,0,0,0,0,0,0
1516,525,506,693.0,1,0,0,0,0,0,0,0,0,0
1517,522,507,693.0,1,0,0,0,0,0,0,0,0,0
1518,519,509,693.0,1,0,0,0,0,0,0,0,0,0
1519,515,509,693.0,1,0,0,0,0,0,0,0,0,0
1520,511,510,693.0,1,0,0,0,0,0,0,0,0,0
1521,507,510,693.0,1,0,0,0,0,0,0,0,0,0
1522,503,511,693.0,1,0,0,0,0,0,0,0,0,0
1523,499,512,693.0,1,0,0,0,0,0,0,0,0,0
1524,495,513,693.0,1,0,0,0,0,0,0,0,0,0
1525,493,514,693.0,1,0,0,0,0,0,0,0,0,0
1526,490,516,693.0,1,0,0,0,0,0,0,0,0,0
1527,488,517,693.0,1,0,0,0,0,0,0,0,0,0
1528,486,517,693.0,1,0,0,0,0,0,0,0,0,0
1529,486,518,693.0,1,0,0,0,0,0,0,0,0,0
1530,485,518,693.0,1,0,0,0,0,0,0,0,0,0
1531,484,517,692.0,1,0,0,0,0,0,0,0,0,0
1532,484,517,693.0,1,0,0,0,0,0,0,0,0,0
1533,485,517,693.0,1,0,0,0,0,0,0,0,0,0
1534,486,516,693.0,1,0,0,0,0,0,0,0,0,0
1535,487,516,693.0,1,0,0,0,0,0,0,0,0,0
1536,488,516,693.0,1,0,0,0,0,0,0,0,0,0
1537,489,516,693.0,1,0,0,0,0,0,0,0,0,0
1538,491,516,693.0,1,0,0,0,0,0,0,0,0,0
1539,491,515,692.0,1,0,0,0,0,0,0,0,0,0
1540,492,515,693.0,1,0,0,0,0,0,0,0,0,0
1541,493,515,693.0,1,0,0,0,0,0,0,0,0,0
1542,494,515,693.0,1,0,0,0,0,0,0,0,0,0
1543,495,515,692.0,1,0,0,0,0,0,0,0,0,0
1544,496,514,693.0,1,0,0,0,0,0,0,0,0,0
1545,497,514,693.0,1,0,0,0,0,0,0,0,0,0
1546,498,513,693.0,1,0,0,0,0,0,0,0,0,0
1547,499,512,693.0,1,0,0,0,0,0,0,0,0,0
1548,499,514,693.0,1,0,0,0,0,0,0,0,0,0
1549,500,514,693.0,1,0,0,0,0,0,0,0,0,0
1550,501,514,693.0,1,0,0,0,0,0,0,0,0,0
1551,502,513,693.0,1,0,0,0,0,0,0,0,0,0
1552,503,512,693.0,1,0,0,0,0,0,0,0,0,0
1553,503,512,693.0,1,0,0,0,0,0,0,0,0,0
1554,504,513,693.0,1,0,0,0,0,0,0,0,0,0
1555,504,513,692.0,1,0,0,0,0,0,0,0,0,0
1556,504,513,693.0,1,0,0,0,0,0,0,0,0,0
1557,504,513,693.0,1,0,0,0,0,0,0,0,0,0
1558,504,512,693.0,1,0,0,0,0,0,0,0,0,0
1559,505,512,693.0,1,0,0,0,0,0,0,0,0,0
1560,505,512,693.0,1,0,0,0,0,0,0,0,0,0
1561,505,511,693.0,1,0,0,0,0,0,0,0,0,0
1562,505,510,693.0,1,0,0,0,0,0,0,0,0,0
1563,505,511,693.0,1,0,0,0,0,0,0,0,0,0
1564,505,511,693.0,1,0,0,0,0,0,0,0,0,0
1565,505,511,693.0,1,0,0,0,0,0,0,0,0,0
1566,505,511,693.0,1,0,0,0,0,0,0,0,0,0
1567,505,511,693.0,1,0,0,0,0,0,0,0,0,0
1568,505,511,693.0,1,0,0,0,0,0,0,0,0,0
1569,505,510,693.0,1,0,0,0,0,0,0,0,0,0
1570,505,510,693.0,1,0,0,0,0,0,0,0,0,0
1571,505,510,693.0,1,0,0,0,0,0,0,0,0,0
1572,505,511,693.0,1,0,0,0,0,0,0,0,0,0
1573,505,511,693.0,1,0,0,0,0,0,0,0,0,0
1574,505,510,693.0,1,0,0,0,0,0,0,0,0,0
1575,505,509,693.0,1,0,0,0,0,0,0,0,0,0
1576,505,511,693.0,1,0,0,0,0,0,0,0,0,0
1577,505,512,693.0,1,0,0,0,0,0,0,0,0,0
1578,505,512,693.0,1,0,0,0,0,0,0,0,0,0
1579,505,512,692.0,1,0,0,0,0,0,0,0,0,0
1580,506,512,693.0,1,0,0,0,0,0,0,0,0,0
1581,506,512,693.0,1,0,0,0,0,0,0,0,0,0
1582,505,512,693.0,1,0,0,0,0,0,0,0,0,0
1583,506,511,692.0,1,0,0,0,0,0,0,0,0,0
1584,505,511,693.0,1,0,0,0,0,0,0,0,0,0
1585,505,511,693.0,1,0,0,0,0,0,0,0,0,0
1586,506,511,693.0,1,0,0,0,0,0,0,0,0,0
1587,506,512,692.0,1,0,0,0,0,0,0,0,0,0
1588,506,512,693.0,1,0,0,0,0,0,0,0,0,0
1589,506,511,693.0,1,0,0,0,0,0,0,0,0,0
1590,507,511,693.0,1,0,0,0,0,0,0,0,0,0
1591,507,510,692.0,1,0,0,0,0,0,0,0,0,0
1592,507,510,693.0,1,0,0,0,0,0,0,0,0,0
1593,509,510,693.0,1,0,0,0,0,0,0,0,0,0
1594,511,509,693.0,1,0,0,0,0,0,0,0,0,0
1595,512,509,693.0,1,0,0,0,0,0,0,0,0,0
1596,514,508,693.0,1,0,0,0,0,0,0,0,0,0
1597,516,508,693.0,1,0,0,0,0,0,0,0,0,0
1598,519,507,693.0,1,0,0,0,0,0,0,0,0,0
1599,520,508,693.0,1,0,0,0,0,0,0,0,0,0
1600,521,508,693.0,1,0,0,0,0,0,0,0,0,0
1601,524,508,693.0,1,0,0,0,0,0,0,0,0,0
1602,526,508,693.0,1,0,0,0,0,0,0,0,0,0
1603,527,508,692.0,1,0,0,0,0,0,0,0,0,0
1604,527,508,693.0,1,0,0,0,0,0,0,0,0,0
1605,525,508,693.0,1,0,0,0,0,0,0,0,0,0
1606,522,508,693.0,1,0,0,0,0,0,0,0,0,0
1607,519,509,693.0,1,0,0,0,0,0,0,0,0,0
1608,517,509,693.0,1,0,0,0,0,0,0,0,0,0
1609,515,510,692.0,1,0,0,0,0,0,0,0,0,0
1610,514,509,693.0,1,0,0,0,0,0,0,0,0,0
1611,511,509,692.0,1,0,0,0,0,0,0,0,0,0
1612,508,510,693.0,1,0,0,0,0,0,0,0,0,0
1613,505,511,692.0,1,0,0,0,0,0,0,0,0,0
1614,503,513,693.0,1,0,0,0,0,0,0,0,0,0
1615,502,513,693.0,1,0,0,0,0,0,0,0,0,0
1616,501,514,693.0,1,0,0,0,0,0,0,0,0,0
1617,501,513,692.0,1,0,0,0,0,0,0,0,0,0
1618,501,513,693.0,1,0,0,0,0,0,0,0,0,0
1619,501,511,692.0,1,0,0,0,0,0,0,0,0,0
1620,501,513,693.0,1,0,0,0,0,0,0,0,0,0
1621,501,514,693.0,1,0,0,0,0,0,0,0,0,0
1622,502,513,693.0,1,0,0,0,0,0,0,0,0,0
1623,502,513,693.0,1,0,0,0,0,0,0,0,0,0
1624,503,512,693.0,1,0,0,0,0,0,0,0,0,0
1625,503,512,693.0,1,0,0,0,0,0,0,0,0,0
1626,504,512,693.0,1,0,0,0,0,0,0,0,0,0
1627,503,513,692.0,1,0,0,0,0,0,0,0,0,0
1628,501,513,693.0,1,0,0,0,0,0,0,0,0,0
1629,496,513,692.0,1,0,0,0,0,0,0,0,0,0
1630,490,514,693.0,1,0,0,0,0,0,0,0,0,0
1631,491,513,692.0,1,0,0,0,0,0,0,0,0,0
1632,502,512,693.0,1,0,0,0,0,0,0,0,0,0
1633,515,507,693.0,1,0,0,0,0,0,0,0,0,0
1634,535,503,693.0,1,0,0,0,0,0,0,0,0,0
1635,568,499,692.0,1,0,0,0,0,0,0,0,0,0
1636,612,495,693.0,1,0,0,0,0,0,0,0,0,0
1637,663,492,693.0,1,0,0,0,0,0,0,0,0,0
1638,691,493,693.0,1,0,0,0,0,0,0,0,0,0
1639,670,499,693.0,1,0,0,0,0,0,0,0,0,0
1640,629,508,693.0,1,0,0,0,0,0,0,0,0,0
1641,580,516,692.0,1,0,0,0,0,0,0,0,0,0
1642,544,521,693.0,1,0,0,0,0,0,0,0,0,0
1643,514,521,693.0,1,0,0,0,0,0,0,0,0,0
1644,491,520,693.0,1,0,0,0,0,0,0,0,0,0
1645,480,519,693.0,1,0,0,0,0,0,0,0,0,0
1646,474,516,693.0,1,0,0,0,0,0,0,0,0,0
1647,473,513,693.0,1,0,0,0,0,0,0,0,0,0
1648,473,512,693.0,1,0,0,0,0,0,0,0,0,0
1649,473,513,693.0,1,0,0,0,0,0,0,0,0,0
1650,474,514,693.0,1,0,0,0,0,0,0,0,0,0
1651,475,513,692.0,1,0,0,0,0,0,0,0,0,0
1652,475,513,693.0,1,0,0,0,0,0,0,0,0,0
1653,476,514,693.0,1,0,0,0,0,0,0,0,0,0
1654,478,514,693.0,1,0,0,0,0,0,0,0,0,0
1655,480,514,693.0,1,0,0,0,0,0,0,0,0,0
1656,481,514,692.0,1,0,0,0,0,0,0,0,0,0
1657,482,512,692.0,1,0,0,0,0,0,0,0,0,0
1658,483,511,692.0,1,0,0,0,0,0,0,0,0,0
1659,485,511,692.0,1,0,0,0,0,0,0,0,0,0
1660,487,511,693.0,1,0,0,0,0,0,0,0,0,0
1661,488,510,693.0,1,0,0,0,0,0,0,0,0,0
1662,490,510,693.0,1,0,0,0,0,0,0,0,0,0
1663,491,511,692.0,1,0,0,0,0,0,0,0,0,0
1664,492,511,692.0,1,0,0,0,0,0,0,0,0,0
1665,494,510,692.0,1,0,0,0,0,0,0,0,0,0
1666,495,510,693.0,1,0,0,0,0,0,0,0,0,0
1667,496,509,692.0,1,0,0,0,0,0,0,0,0,0
1668,498,508,693.0,1,0,0,0,0,0,0,0,0,0
1669,498,509,693.0,1,0,0,0,0,0,0,0,0,0
1670,500,508,692.0,1,0,0,0,0,0,0,0,0,0
1671,501,508,693.0,1,0,0,0,0,0,0,0,0,0
1672,502,509,693.0,1,0,0,0,0,0,0,0,0,0
1673,503,509,693.0,1,0,0,0,0,0,0,0,0,0
1674,503,510,692.0,1,0,0,0,0,0,0,0,0,0
1675,504,510,693.0,1,0,0,0,0,0,0,0,0,0
1676,505,510,692.0,1,0,0,0,0,0,0,0,0,0
1677,507,510,692.0,1,0,0,0,0,0,0,0,0,0
1678,508,510,693.0,1,0,0,0,0,0,0,0,0,0
1679,509,510,692.0,1,0,0,0,0,0,0,0,0,0
1680,510,510,692.0,1,0,0,0,0,0,0,0,0,0
1681,511,510,693.0,1,0,0,0,0,0,0,0,0,0
1682,512,510,693.0,1,0,0,0,0,0,0,0,0,0
1683,513,509,692.0,1,0,0,0,0,0,0,0,0,0
1684,514,508,692.0,1,0,0,0,0,0,0,0,0,0
1685,514,508,693.0,1,0,0,0,0,0,0,0,0,0
1686,514,508,693.0,1,0,0,0,0,0,0,0,0,0
1687,515,508,692.0,1,0,0,0,0,0,0,0,0,0
1688,515,506,693.0,1,0,0,0,0,0,0,0,0,0
1689,516,505,692.0,1,0,0,0,0,0,0,0,0,0
1690,518,506,693.0,1,0,0,0,0,0,0,0,0,0
1691,519,507,693.0,1,0,0,0,0,0,0,0,0,0
1692,520,507,693.0,1,0,0,0,0,0,0,0,0,0
1693,521,507,693.0,1,0,0,0,0,0,0,0,0,0
1694,522,507,693.0,1,0,0,0,0,0,0,0,0,0
1695,524,506,693.0,1,0,0,0,0,0,0,0,0,0
1696,525,506,693.0,1,0,0,0,0,0,0,0,0,0
1697,525,506,693.0,1,0,0,0,0,0,0,0,0,0
1698,526,505,693.0,1,0,0,0,0,0,0,0,0,0
1699,526,505,692.0,1,0,0,0,0,0,0,0,0,0
1700,527,506,693.0,1,0,0,0,0,0,0,0,0,0
1701,528,505,692.0,1,0,0,0,0,0,0,0,0,0
1702,528,505,693.0,1,0,0,0,0,0,0,0,0,0
1703,528,506,692.0,1,0,0,0,0,0,0,0,0,0
1704,527,506,693.0,1,0,0,0,0,0,0,0,0,0
1705,527,506,693.0,1,0,0,0,0,0,0,0,0,0
1706,527,506,692.0,1,0,0,0,0,0,0,0,0,0
1707,526,506,692.0,1,0,0,0,0,0,0,0,0,0
1708,526,506,693.0,1,0,0,0,0,0,0,0,0,0
1709,525,506,693.0,1,0,0,0,0,0,0,0,0,0
1710,524,506,693.0,1,0,0,0,0,0,0,0,0,0
1711,522,507,693.0,1,0,0,0,0,0,0,0,0,0
1712,519,507,693.0,1,0,0,0,0,0,0,0,0,0
1713,516,508,692.0,1,0,0,0,0,0,0,0,0,0
1714,513,510,693.0,1,0,0,0,0,0,0,0,0,0
1715,509,511,693.0,1,0,0,0,0,0,0,0,0,0
1716,506,512,693.0,1,0,0,0,0,0,0,0,0,0
1717,502,513,692.0,1,0,0,0,0,0,0,0,0,0
1718,498,514,693.0,1,0,0,0,0,0,0,0,0,0
1719,495,515,693.0,1,0,0,0,0,0,0,0,0,0
1720,493,516,693.0,1,0,0,0,0,0,0,0,0,0
1721,490,517,693.0,1,0,0,0,0,0,0,0,0,0
1722,488,517,693.0,1,0,0,0,0,0,0,0,0,0
1723,487,517,693.0,1,0,0,0,0,0,0,0,0,0
1724,485,517,693.0,1,0,0,0,0,0,0,0,0,0
1725,485,517,693.0,1,0,0,0,0,0,0,0,0,0
1726,484,518,693.0,1,0,0,0,0,0,0,0,0,0
1727,484,518,692.0,1,0,0,0,0,0,0,0,0,0
1728,484,519,693.0,1,0,0,0,0,0,0,0,0,0
1729,486,518,692.0,1,0,0,0,0,0,0,0,0,0
1730,487,518,693.0,1,0,0,0,0,0,0,0,0,0
1731,487,517,693.0,1,0,0,0,0,0,0,0,0,0
1732,488,517,693.0,1,0,0,0,0,0,0,0,0,0
1733,489,517,693.0,1,0,0,0,0,0,0,0,0,0
1734,489,517,693.0,1,0,0,0,0,0,0,0,0,0
1735,490,516,693.0,1,0,0,0,0,0,0,0,0,0
1736,491,516,693.0,1,0,0,0,0,0,0,0,0,0
1737,492,515,693.0,1,0,0,0,0,0,0,0,0,0
1738,493,515,693.0,1,0,0,0,0,0,0,0,0,0
1739,494,515,693.0,1,0,0,0,0,0,0,0,0,0
1740,496,514,693.0,1,0,0,0,0,0,0,0,0,0
1741,496,514,692.0,1,0,0,0,0,0,0,0,0,0
1742,497,515,693.0,1,0,0,0,0,0,0,0,0,0
1743,498,514,693.0,1,0,0,0,0,0,0,0,0,0
1744,499,514,693.0,1,0,0,0,0,0,0,0,0,0
1745,499,513,693.0,1,0,0,0,0,0,0,0,0,0
1746,501,513,693.0,1,0,0,0,0,0,0,0,0,0
1747,501,513,693.0,1,0,0,0,0,0,0,0,0,0
1748,502,513,693.0,1,0,0,0,0,0,0,0,0,0
1749,502,513,693.0,1,0,0,0,0,0,0,0,0,0
1750,502,513,693.0,1,0,0,0,0,0,0,0,0,0
1751,502,512,693.0,1,0,0,0,0,0,0,0,0,0
1752,502,512,693.0,1,0,0,0,0,0,0,0,0,0
1753,503,513,693.0,1,0,0,0,0,0,0,0,0,0
1754,503,512,693.0,1,0,0,0,0,0,0,0,0,0
1755,503,513,693.0,1,0,0,0,0,0,0,0,0,0
1756,503,512,693.0,1,0,0,0,0,0,0,0,0,0
1757,503,512,693.0,1,0,0,0,0,0,0,0,0,0
1758,503,513,693.0,1,0,0,0,0,0,0,0,0,0
1759,503,512,693.0,1,0,0,0,0,0,0,0,0,0
1760,503,512,693.0,1,0,0,0,0,0,0,0,0,0
1761,503,511,693.0,1,0,0,0,0,0,0,0,0,0
1762,503,512,693.0,1,0,0,0,0,0,0,0,0,0
1763,503,512,693.0,1,0,0,0,0,0,0,0,0,0
1764,504,512,693.0,1,0,0,0,0,0,0,0,0,0
1765,503,511,693.0,1,0,0,0,0,0,0,0,0,0
1766,503,511,693.0,1,0,0,0,0,0,0,0,0,0
1767,503,512,693.0,1,0,0,0,0,0,0,0,0,0
1768,503,512,693.0,1,0,0,0,0,0,0,0,0,0
1769,503,512,693.0,1,0,0,0,0,0,0,0,0,0
1770,504,510,693.0,1,0,0,0,0,0,0,0,0,0
1771,504,509,693.0,1,0,0,0,0,0,0,0,0,0
1772,504,510,693.0,1,0,0,0,0,0,0,0,0,0
1773,504,510,693.0,1,0,0,0,0,0,0,0,0,0
1774,504,510,693.0,1,0,0,0,0,0,0,0,0,0
1775,505,510,693.0,1,0,0,0,0,0,0,0,0,0
1776,504,511,693.0,1,0,0,0,0,0,0,0,0,0
1777,504,512,693.0,1,0,0,0,0,0,0,0,0,0
1778,504,511,693.0,1,0,0,0,0,0,0,0,0,0
1779,504,511,693.0,1,0,0,0,0,0,0,0,0,0
1780,505,511,693.0,1,0,0,0,0,0,0,0,0,0
1781,505,512,693.0,1,0,0,0,0,0,0,0,0,0
1782,506,512,693.0,1,0,0,0,0,0,0,0,0,0
1783,506,511,693.0,1,0,0,0,0,0,0,0,0,0
1784,506,510,693.0,1,0,0,0,0,0,0,0,0,0
1785,506,511,693.0,1,0,0,0,0,0,0,0,0,0
1786,507,511,693.0,1,0,0,0,0,0,0,0,0,0
1787,509,511,693.0,1,0,0,0,0,0,0,0,0,0
1788,510,510,693.0,1,0,0,0,0,0,0,0,0,0
1789,512,509,693.0,1,0,0,0,0,0,0,0,0,0
1790,514,508,693.0,1,0,0,0,0,0,0,0,0,0
1791,517,507,693.0,1,0,0,0,0,0,0,0,0,0
1792,518,507,693.0,1,0,0,0,0,0,0,0,0,0
1793,519,507,693.0,1,0,0,0,0,0,0,0,0,0
1794,522,507,693.0,1,0,0,0,0,0,0,0,0,0
1795,524,507,693.0,1,0,0,0,0,0,0,0,0,0
1796,524,507,693.0,1,0,0,0,0,0,0,0,0,0
1797,524,506,693.0,1,0,0,0,0,0,0,0,0,0
1798,522,506,693.0,1,0,0,0,0,0,0,0,0,0
1799,520,506,693.0,1,0,0,0,0,0,0,0,0,0
1800,517,506,693.0,1,0,0,0,0,0,0,0,0,0
1801,515,506,693.0,1,0,0,0,0,0,0,0,0,0
1802,514,506,693.0,1,0,0,0,0,0,0,0,0,0
1803,513,507,693.0,1,0,0,0,0,0,0,0,0,0
1804,510,508,693.0,1,0,0,0,0,0,0,0,0,0
1805,507,510,693.0,1,0,0,0,0,0,0,0,0,0
1806,503,511,693.0,1,0,0,0,0,0,0,0,0,0
1807,501,511,693.0,1,0,0,0,0,0,0,0,0,0
1808,500,512,693.0,1,0,0,0,0,0,0,0,0,0
1809,500,512,693.0,1,0,0,0,0,0,0,0,0,0
1810,500,513,693.0,1,0,0,0,0,0,0,0,0,0
1811,500,512,693.0,1,0,0,0,0,0,0,0,0,0
1812,500,511,693.0,1,0,0,0,0,0,0,0,0,0
1813,501,511,693.0,1,0,0,0,0,0,0,0,0,0
1814,501,511,693.0,1,0,0,0,0,0,0,0,0,0
1815,502,511,693.0,1,0,0,0,0,0,0,0,0,0
1816,502,512,693.0,1,0,0,0,0,0,0,0,0,0
1817,502,512,693.0,1,0,0,0,0,0,0,0,0,0
1818,502,512,693.0,1,0,0,0,0,0,0,0,0,0
1819,502,512,693.0,1,0,0,0,0,0,0,0,0,0
1820,502,511,693.0,1,0,0,0,0,0,0,0,0,0
1821,500,511,693.0,1,0,0,0,0,0,0,0,0,0
1822,494,511,693.0,1,0,0,0,0,0,0,0,0,0
1823,488,511,693.0,1,0,0,0,0,0,0,0,0,0
1824,491,510,693.0,1,0,0,0,0,0,0,0,0,0
1825,503,508,693.0,1,0,0,0,0,0,0,0,0,0
1826,516,504,693.0,1,0,0,0,0,0,0,0,0,0
1827,535,499,693.0,1,0,0,0,0,0,0,0,0,0
1828,567,495,693.0,1,0,0,0,0,0,0,0,0,0
1829,612,491,693.0,1,0,0,0,0,0,0,0,0,0
1830,663,489,693.0,1,0,0,0,0,0,0,0,0,0
1831,692,491,693.0,1,0,0,0,0,0,0,0,0,0
1832,674,496,693.0,1,0,0,0,0,0,0,0,0,0
1833,634,505,693.0,1,0,0,0,0,0,0,0,0,0
1834,585,513,693.0,1,0,0,0,0,0,0,0,0,0
1835,547,518,693.0,1,0,0,0,0,0,0,0,0,0
1836,514,518,693.0,1,0,0,0,0,0,0,0,0,0
1837,490,518,693.0,1,0,0,0,0,0,0,0,0,0
1838,478,516,693.0,1,0,0,0,0,0,0,0,0,0
1839,473,513,693.0,1,0,0,0,0,0,0,0,0,0
1840,471,512,693.0,1,0,0,0,0,0,0,0,0,0
1841,470,512,693.0,1,0,0,0,0,0,0,0,0,0
1842,471,511,693.0,1,0,0,0,0,0,0,0,0,0
1843,472,512,693.0,1,0,0,0,0,0,0,0,0,0
1844,473,511,693.0,1,0,0,0,0,0,0,0,0,0
1845,473,511,693.0,1,0,0,0,0,0,0,0,0,0
1846,474,510,693.0,1,0,0,0,0,0,0,0,0,0
1847,476,511,693.0,1,0,0,0,0,0,0,0,0,0
1848,477,511,693.0,1,0,0,0,0,0,0,0,0,0
1849,478,510,693.0,1,0,0,0,0,0,0,0,0,0
1850,480,510,693.0,1,0,0,0,0,0,0,0,0,0
1851,481,510,693.0,1,0,0,0,0,0,0,0,0,0
1852,483,510,693.0,1,0,0,0,0,0,0,0,0,0
1853,485,510,693.0,1,0,0,0,0,0,0,0,0,0
1854,487,510,693.0,1,0,0,0,0,0,0,0,0,0
1855,488,509,693.0,1,0,0,0,0,0,0,0,0,0
1856,489,509,693.0,1,0,0,0,0,0,0,0,0,0
1857,491,509,693.0,1,0,0,0,0,0,0,0,0,0
1858,492,509,693.0,1,0,0,0,0,0,0,0,0,0
1859,493,509,693.0,1,0,0,0,0,0,0,0,0,0
1860,494,510,693.0,1,0,0,0,0,0,0,0,0,0
1861,495,509,693.0,1,0,0,0,0,0,0,0,0,0
1862,496,509,693.0,1,0,0,0,0,0,0,0,0,0
1863,497,508,693.0,1,0,0,0,0,0,0,0,0,0
1864,498,508,693.0,1,0,0,0,0,0,0,0,0,0
1865,499,508,693.0,1,0,0,0,0,0,0,0,0,0
1866,500,508,693.0,1,0,0,0,0,0,0,0,0,0
1867,501,508,693.0,1,0,0,0,0,0,0,0,0,0
1868,502,508,693.0,1,0,0,0,0,0,0,0,0,0
1869,503,509,693.0,1,0,0,0,0,0,0,0,0,0
1870,504,508,693.0,1,0,0,0,0,0,0,0,0,0
1871,505,507,693.0,1,0,0,0,0,0,0,0,0,0
1872,506,507,693.0,1,0,0,0,0,0,0,0,0,0
1873,507,506,693.0,1,0,0,0,0,0,0,0,0,0
1874,509,506,693.0,1,0,0,0,0,0,0,0,0,0
1875,509,507,693.0,1,0,0,0,0,0,0,0,0,0
1876,510,507,693.0,1,0,0,0,0,0,0,0,0,0
1877,511,507,693.0,1,0,0,0,0,0,0,0,0,0
1878,512,507,693.0,1,0,0,0,0,0,0,0,0,0
1879,514,506,693.0,1,0,0,0,0,0,0,0,0,0
1880,515,506,693.0,1,0,0,0,0,0,0,0,0,0
1881,516,506,693.0,1,0,0,0,0,0,0,0,0,0
1882,518,506,693.0,1,0,0,0,0,0,0,0,0,0
1883,519,506,693.0,1,0,0,0,0,0,0,0,0,0
1884,520,506,693.0,1,0,0,0,0,0,0,0,0,0
1885,521,506,693.0,1,0,0,0,0,0,0,0,0,0
1886,522,505,693.0,1,0,0,0,0,0,0,0,0,0
1887,522,505,693.0,1,0,0,0,0,0,0,0,0,0
1888,523,505,693.0,1,0,0,0,0,0,0,0,0,0
1889,524,505,693.0,1,0,0,0,0,0,0,0,0,0
1890,525,505,693.0,1,0,0,0,0,0,0,0,0,0
1891,526,504,693.0,1,0,0,0,0,0,0,0,0,0
1892,526,504,693.0,1,0,0,0,0,0,0,0,0,0
1893,527,504,693.0,1,0,0,0,0,0,0,0,0,0
1894,528,504,693.0,1,0,0,0,0,0,0,0,0,0
1895,528,504,693.0,1,0,0,0,0,0,0,0,0,0
1896,528,505,693.0,1,0,0,0,0,0,0,0,0,0
1897,527,505,693.0,1,0,0,0,0,0,0,0,0,0
1898,527,506,693.0,1,0,0,0,0,0,0,0,0,0
1899,526,506,693.0,1,0,0,0,0,0,0,0,0,0
1900,525,505,693.0,1,0,0,0,0,0,0,0,0,0
1901,525,505,693.0,1,0,0,0,0,0,0,0,0,0
1902,524,506,693.0,1,0,0,0,0,0,0,0,0,0
1903,523,506,693.0,1,0,0,0,0,0,0,0,0,0
1904,522,507,693.0,1,0,0,0,0,0,0,0,0,0
1905,519,508,693.0,1,0,0,0,0,0,0,0,0,0
1906,516,509,693.0,1,0,0,0,0,0,0,0,0,0
1907,513,510,693.0,1,0,0,0,0,0,0,0,0,0
1908,510,511,693.0,1,0,0,0,0,0,0,0,0,0
1909,505,512,693.0,1,0,0,0,0,0,0,0,0,0
1910,501,513,693.0,1,0,0,0,0,0,0,0,0,0
1911,498,514,693.0,1,0,0,0,0,0,0,0,0,0
1912,495,514,693.0,1,0,0,0,0,0,0,0,0,0
1913,493,515,693.0,1,0,0,0,0,0,0,0,0,0
1914,490,516,693.0,1,0,0,0,0,0,0,0,0,0
1915,488,516,693.0,1,0,0,0,0,0,0,0,0,0
1916,486,516,693.0,1,0,0,0,0,0,0,0,0,0
1917,485,517,693.0,1,0,0,0,0,0,0,0,0,0
1918,484,517,693.0,1,0,0,0,0,0,0,0,0,0
1919,485,518,693.0,1,0,0,0,0,0,0,0,0,0
1920,485,518,693.0,1,0,0,0,0,0,0,0,0,0
1921,484,517,693.0,1,0,0,0,0,0,0,0,0,0
1922,485,517,693.0,1,0,0,0,0,0,0,0,0,0
1923,486,516,693.0,1,0,0,0,0,0,0,0,0,0
1924,488,516,693.0,1,0,0,0,0,0,0,0,0,0
1925,489,515,693.0,1,0,0,0,0,0,0,0,0,0
1926,490,515,693.0,1,0,0,0,0,0,0,0,0,0
1927,491,515,693.0,1,0,0,0,0,0,0,0,0,0
1928,492,515,693.0,1,0,0,0,0,0,0,0,0,0
1929,493,514,693.0,1,0,0,0,0,0,0,0,0,0
1930,494,514,693.0,1,0,0,0,0,0,0,0,0,0
1931,495,513,693.0,1,0,0,0,0,0,0,0,0,0
1932,496,513,693.0,1,0,0,0,0,0,0,0,0,0
1933,497,514,693.0,1,0,0,0,0,0,0,0,0,0
1934,498,514,693.0,1,0,0,0,0,0,0,0,0,0
1935,499,515,693.0,1,0,0,0,0,0,0,0,0,0
1936,499,514,693.0,1,0,0,0,0,0,0,0,0,0
1937,500,513,693.0,1,0,0,0,0,0,0,0,0,0
1938,501,512,693.0,1,0,0,0,0,0,0,0,0,0
1939,502,512,693.0,1,0,0,0,0,0,0,0,0,0
1940,502,511,693.0,1,0,0,0,0,0,0,0,0,0
1941,503,511,693.0,1,0,0,0,0,0,0,0,0,0
1942,503,511,693.0,1,0,0,0,0,0,0,0,0,0
1943,503,511,693.0,1,0,0,0,0,0,0,0,0,0
1944,504,511,693.0,1,0,0,0,0,0,0,0,0,0
1945,505,511,693.0,1,0,0,0,0,0,0,0,0,0
1946,505,512,693.0,1,0,0,0,0,0,0,0,0,0
1947,505,512,693.0,1,0,0,0,0,0,0,0,0,0
1948,505,512,693.0,1,0,0,0,0,0,0,0,0,0
1949,506,512,693.0,1,0,0,0,0,0,0,0,0,0
1950,506,512,693.0,1,0,0,0,0,0,0,0,0,0
1951,506,511,693.0,1,0,0,0,0,0,0,0,0,0
1952,506,511,693.0,1,0,0,0,0,0,0,0,0,0
1953,505,511,693.0,1,0,0,0,0,0,0,0,0,0
1954,505,512,693.0,1,0,0,0,0,0,0,0,0,0
1955,505,512,693.0,1,0,0,0,0,0,0,0,0,0
1956,505,511,693.0,1,0,0,0,0,0,0,0,0,0
1957,506,511,693.0,1,0,0,0,0,0,0,0,0,0
1958,506,511,693.0,1,0,0,0,0,0,0,0,0,0
1959,505,511,693.0,1,0,0,0,0,0,0,0,0,0
1960,505,511,693.0,1,0,0,0,0,0,0,0,0,0
1961,505,510,693.0,1,0,0,0,0,0,0,0,0,0
1962,504,511,693.0,1,0,0,0,0,0,0,0,0,0
1963,505,511,693.0,1,0,0,0,0,0,0,0,0,0
1964,505,511,693.0,1,0,0,0,0,0,0,0,0,0
1965,505,511,693.0,1,0,0,0,0,0,0,0,0,0
1966,505,511,693.0,1,0,0,0,0,0,0,0,0,0
1967,505,510,693.0,1,0,0,0,0,0,0,0,0,0
1968,505,510,693.0,1,0,0,0,0,0,0,0,0,0
1969,505,511,693.0,1,0,0,0,0,0,0,0,0,0
1970,506,511,693.0,1,0,0,0,0,0,0,0,0,0
1971,506,511,693.0,1,0,0,0,0,0,0,0,0,0
1972,506,511,693.0,1,0,0,0,0,0,0,0,0,0
1973,506,510,693.0,1,0,0,0,0,0,0,0,0,0
1974,506,510,693.0,1,0,0,0,0,0,0,0,0,0
1975,506,510,693.0,1,0,0,0,0,0,0,0,0,0
1976,506,510,693.0,1,0,0,0,0,0,0,0,0,0
1977,506,511,693.0,1,0,0,0,0,0,0,0,0,0
1978,506,511,693.0,1,0,0,0,0,0,0,0,0,0
1979,507,510,693.0,1,0,0,0,0,0,0,0,0,0
1980,508,510,693.0,1,0,0,0,0,0,0,0,0,0
1981,510,509,693.0,1,0,0,0,0,0,0,0,0,0
1982,511,509,693.0,1,0,0,0,0,0,0,0,0,0
1983,512,508,693.0,1,0,0,0,0,0,0,0,0,0
1984,514,508,693.0,1,0,0,0,0,0,0,0,0,0
1985,516,507,693.0,1,0,0,0,0,0,0,0,0,0
1986,517,507,693.0,1,0,0,0,0,0,0,0,0,0
1987,519,506,693.0,1,0,0,0,0,0,0,0,0,0
1988,522,506,693.0,1,0,0,0,0,0,0,0,0,0
1989,523,507,693.0,1,0,0,0,0,0,0,0,0,0
1990,524,506,693.0,1,0,0,0,0,0,0,0,0,0
1991,524,506,693.0,1,0,0,0,0,0,0,0,0,0
1992,522,506,693.0,1,0,0,0,0,0,0,0,0,0
1993,520,506,693.0,1,0,0,0,0,0,0,0,0,0
1994,517,507,693.0,1,0,0,0,0,0,0,0,0,0
1995,515,508,693.0,1,0,0,0,0,0,0,0,0,0
1996,514,509,693.0,1,0,0,0,0,0,0,0,0,0
1997,513,509,693.0,1,0,0,0,0,0,0,0,0,0
1998,510,509,693.0,1,0,0,0,0,0,0,0,0,0
1999,508,510,693.0,1,0,0,0,0,0,0,0,0,0
2000,505,511,693.0,1,0,0,0,0,0,0,0,0,0
2001,502,512,693.0,1,0,0,0,0,0,0,0,0,0
2002,500,512,693.0,1,0,0,0,0,0,0,0,0,0
2003,500,512,693.0,1,0,0,0,0,0,0,0,0,0
2004,500,512,693.0,1,0,0,0,0,0,0,0,0,0
2005,500,512,693.0,1,0,0,0,0,0,0,0,0,0
2006,500,512,693.0,1,0,0,0,0,0,0,0,0,0
2007,501,511,693.0,1,0,0,0,0,0,0,0,0,0
2008,501,511,693.0,1,0,0,0,0,0,0,0,0,0
2009,502,511,693.0,1,0,0,0,0,0,0,0,0,0
2010,502,511,693.0,1,0,0,0,0,0,0,0,0,0
2011,502,511,693.0,1,0,0,0,0,0,0,0,0,0
2012,503,511,693.0,1,0,0,0,0,0,0,0,0,0
2013,503,512,693.0,1,0,0,0,0,0,0,0,0,0
2014,503,512,693.0,1,0,0,0,0,0,0,0,0,0
2015,502,512,693.0,1,0,0,0,0,0,0,0,0,0
2016,497,511,693.0,1,0,0,0,0,0,0,0,0,0
2017,490,510,693.0,1,0,0,0,0,0,0,0,0,0
2018,489,510,693.0,1,0,0,0,0,0,0,0,0,0
2019,499,508,693.0,1,0,0,0,0,0,0,0,0,0
2020,511,505,693.0,1,0,0,0,0,0,0,0,0,0
2021,528,502,693.0,1,0,0,0,0,0,0,0,0,0
2022,557,498,693.0,1,0,0,0,0,0,0,0,0,0
2023,599,494,693.0,1,0,0,0,0,0,0,0,0,0
2024,649,490,693.0,1,0,0,0,0,0,0,0,0,0
2025,686,490,693.0,1,0,0,0,0,0,0,0,0,0
2026,674,495,693.0,1,0,0,0,0,0,0,0,0,0
2027,638,503,693.0,1,0,0,0,0,0,0,0,0,0
2028,591,513,693.0,1,0,0,0,0,0,0,0,0,0
2029,554,519,693.0,1,0,0,0,0,0,0,0,0,0
2030,523,520,693.0,1,0,0,0,0,0,0,0,0,0
2031,498,519,693.0,1,0,0,0,0,0,0,0,0,0
2032,483,518,693.0,1,0,0,0,0,0,0,0,0,0
2033,475,516,693.0,1,0,0,0,0,0,0,0,0,0
2034,473,514,693.0,1,0,0,0,0,0,0,0,0,0
2035,472,512,693.0,1,0,0,0,0,0,0,0,0,0
2036,472,511,693.0,1,0,0,0,0,0,0,0,0,0
2037,473,510,693.0,1,0,0,0,0,0,0,0,0,0
2038,473,511,693.0,1,0,0,0,0,0,0,0,0,0
2039,474,511,693.0,1,0,0,0,0,0,0,0,0,0
2040,476,511,693.0,1,0,0,0,0,0,0,0,0,0
2041,476,511,693.0,1,0,0,0,0,0,0,0,0,0
2042,478,511,693.0,1,0,0,0,0,0,0,0,0,0
2043,479,510,693.0,1,0,0,0,0,0,0,0,0,0
2044,480,511,693.0,1,0,0,0,0,0,0,0,0,0
2045,483,510,693.0,1,0,0,0,0,0,0,0,0,0
2046,484,510,693.0,1,0,0,0,0,0,0,0,0,0
2047,485,510,693.0,1,0,0,0,0,0,0,0,0,0
2048,487,509,693.0,1,0,0,0,0,0,0,0,0,0
2049,488,509,692.0,1,0,0,0,0,0,0,0,0,0
2050,489,510,693.0,1,0,0,0,0,0,0,0,0,0
2051,490,511,693.0,1,0,0,0,0,0,0,0,0,0
2052,492,510,693.0,1,0,0,0,0,0,0,0,0,0
2053,493,509,693.0,1,0,0,0,0,0,0,0,0,0
2054,494,509,693.0,1,0,0,0,0,0,0,0,0,0
2055,495,509,693.0,1,0,0,0,0,0,0,0,0,0
2056,496,509,693.0,1,0,0,0,0,0,0,0,0,0
2057,498,509,693.0,1,0,0,0,0,0,0,0,0,0
2058,499,509,693.0,1,0,0,0,0,0,0,0,0,0
2059,499,508,692.0,1,0,0,0,0,0,0,0,0,0
2060,500,508,693.0,1,0,0,0,0,0,0,0,0,0
2061,501,508,693.0,1,0,0,0,0,0,0,0,0,0
2062,502,508,692.0,1,0,0,0,0,0,0,0,0,0
2063,503,509,692.0,1,0,0,0,0,0,0,0,0,0
2064,505,508,692.0,1,0,0,0,0,0,0,0,0,0
2065,506,508,692.0,1,0,0,0,0,0,0,0,0,0
2066,507,508,692.0,1,0,0,0,0,0,0,0,0,0
2067,508,507,692.0,1,0,0,0,0,0,0,0,0,0
2068,509,507,692.0,1,0,0,0,0,0,0,0,0,0
2069,510,507,692.0,1,0,0,0,0,0,0,0,0,0
2070,511,507,692.0,1,0,0,0,0,0,0,0,0,0
2071,512,507,692.0,1,0,0,0,0,0,0,0,0,0
2072,512,507,692.0,1,0,0,0,0,0,0,0,0,0
2073,513,508,692.0,1,0,0,0,0,0,0,0,0,0
2074,515,507,692.0,1,0,0,0,0,0,0,0,0,0
2075,516,507,692.0,1,0,0,0,0,0,0,0,0,0
2076,517,506,692.0,1,0,0,0,0,0,0,0,0,0
2077,517,505,692.0,1,0,0,0,0,0,0,0,0,0
2078,518,505,692.0,1,0,0,0,0,0,0,0,0,0
2079,519,505,692.0,1,0,0,0,0,0,0,0,0,0
2080,520,505,692.0,1,0,0,0,0,0,0,0,0,0
2081,521,505,692.0,1,0,0,0,0,0,0,0,0,0
2082,522,505,692.0,1,0,0,0,0,0,0,0,0,0
2083,523,505,692.0,1,0,0,0,0,0,0,0,0,0
2084,523,504,692.0,1,0,0,0,0,0,0,0,0,0
2085,524,503,692.0,1,0,0,0,0,0,0,0,0,0
2086,525,504,692.0,1,0,0,0,0,0,0,0,0,0
2087,526,504,692.0,1,0,0,0,0,0,0,0,0,0
2088,525,504,692.0,1,0,0,0,0,0,0,0,0,0
2089,525,504,692.0,1,0,0,0,0,0,0,0,0,0
2090,525,504,692.0,1,0,0,0,0,0,0,0,0,0
2091,526,503,692.0,1,0,0,0,0,0,0,0,0,0
2092,526,503,692.0,1,0,0,0,0,0,0,0,0,0
2093,525,504,692.0,1,0,0,0,0,0,0,0,0,0
2094,525,504,692.0,1,0,0,0,0,0,0,0,0,0
2095,524,504,692.0,1,0,0,0,0,0,0,0,0,0
2096,523,504,692.0,1,0,0,0,0,0,0,0,0,0
2097,523,504,692.0,1,0,0,0,0,0,0,0,0,0
2098,521,506,692.0,1,0,0,0,0,0,0,0,0,0
2099,519,507,692.0,1,0,0,0,0,0,0,0,0,0
2100,516,507,692.0,1,0,0,0,0,0,0,0,0,0
2101,513,507,692.0,1,0,0,0,0,0,0,0,0,0
2102,510,508,692.0,1,0,0,0,0,0,0,0,0,0
2103,506,509,692.0,1,0,0,0,0,0,0,0,0,0
2104,503,512,692.0,1,0,0,0,0,0,0,0,0,0
2105,499,513,692.0,1,0,0,0,0,0,0,0,0,0
2106,496,514,692.0,1,0,0,0,0,0,0,0,0,0
2107,492,514,692.0,1,0,0,0,0,0,0,0,0,0
2108,490,515,692.0,1,0,0,0,0,0,0,0,0,0
2109,488,516,692.0,1,0,0,0,0,0,0,0,0,0
2110,487,516,692.0,1,0,0,0,0,0,0,0,0,0
2111,486,516,692.0,1,0,0,0,0,0,0,0,0,0
2112,485,515,692.0,1,0,0,0,0,0,0,0,0,0
2113,485,515,692.0,1,0,0,0,0,0,0,0,0,0
2114,485,515,692.0,1,0,0,0,0,0,0,0,0,0
2115,486,515,692.0,1,0,0,0,0,0,0,0,0,0
2116,486,516,692.0,1,0,0,0,0,0,0,0,0,0
2117,487,516,692.0,1,0,0,0,0,0,0,0,0,0
2118,488,516,692.0,1,0,0,0,0,0,0,0,0,0
2119,489,515,692.0,1,0,0,0,0,0,0,0,0,0
2120,490,515,692.0,1,0,0,0,0,0,0,0,0,0
2121,491,516,692.0,1,0,0,0,0,0,0,0,0,0
2122,492,515,692.0,1,0,0,0,0,0,0,0,0,0
2123,493,515,691.0,1,0,0,0,0,0,0,0,0,0
2124,494,514,692.0,1,0,0,0,0,0,0,0,0,0
2125,495,515,691.0,1,0,0,0,0,0,0,0,0,0
2126,496,515,692.0,1,0,0,0,0,0,0,0,0,0
2127,497,515,692.0,1,0,0,0,0,0,0,0,0,0
2128,498,515,692.0,1,0,0,0,0,0,0,0,0,0
2129,499,514,692.0,1,0,0,0,0,0,0,0,0,0
2130,500,512,692.0,1,0,0,0,0,0,0,0,0,0
2131,500,511,691.0,1,0,0,0,0,0,0,0,0,0
2132,501,512,692.0,1,0,0,0,0,0,0,0,0,0
2133,502,512,692.0,1,0,0,0,0,0,0,0,0,0
2134,503,512,692.0,1,0,0,0,0,0,0,0,0,0
2135,504,512,691.0,1,0,0,0,0,0,0,0,0,0
2136,504,513,691.0,1,0,0,0,0,0,0,0,0,0
2137,504,513,691.0,1,0,0,0,0,0,0,0,0,0
2138,504,513,691.0,1,0,0,0,0,0,0,0,0,0
2139,504,512,691.0,1,0,0,0,0,0,0,0,0,0
2140,504,512,691.0,1,0,0,0,0,0,0,0,0,0
2141,504,511,692.0,1,0,0,0,0,0,0,0,0,0
2142,505,512,691.0,1,0,0,0,0,0,0,0,0,0
2143,505,512,691.0,1,0,0,0,0,0,0,0,0,0
2144,505,512,691.0,1,0,0,0,0,0,0,0,0,0
2145,505,512,691.0,1,0,0,0,0,0,0,0,0,0
2146,505,512,691.0,1,0,0,0,0,0,0,0,0,0
2147,506,512,691.0,1,0,0,0,0,0,0,0,0,0
2148,505,512,691.0,1,0,0,0,0,0,0,0,0,0
2149,505,512,691.0,1,0,0,0,0,0,0,0,0,0
2150,505,511,691.0,1,0,0,0,0,0,0,0,0,0
2151,505,511,691.0,1,0,0,0,0,0,0,0,0,0
2152,505,512,691.0,1,0,0,0,0,0,0,0,0,0
2153,505,512,691.0,1,0,0,0,0,0,0,0,0,0
2154,505,510,691.0,1,0,0,0,0,0,0,0,0,0
2155,505,510,691.0,1,0,0,0,0,0,0,0,0,0
2156,505,510,691.0,1,0,0,0,0,0,0,0,0,0
2157,505,511,691.0,1,0,0,0,0,0,0,0,0,0
2158,505,512,691.0,1,0,0,0,0,0,0,0,0,0
2159,505,512,691.0,1,0,0,0,0,0,0,0,0,0
2160,505,512,691.0,1,0,0,0,0,0,0,0,0,0
2161,505,511,691.0,1,0,0,0,0,0,0,0,0,0
2162,505,510,691.0,1,0,0,0,0,0,0,0,0,0
2163,505,510,691.0,1,0,0,0,0,0,0,0,0,0
2164,505,511,691.0,1,0,0,0,0,0,0,0,0,0
2165,505,511,691.0,1,0,0,0,0,0,0,0,0,0
2166,506,511,691.0,1,0,0,0,0,0,0,0,0,0
2167,506,511,691.0,1,0,0,0,0,0,0,0,0,0
2168,506,510,691.0,1,0,0,0,0,0,0,0,0,0
2169,506,509,691.0,1,0,0,0,0,0,0,0,0,0
2170,506,510,691.0,1,0,0,0,0,0,0,0,0,0
2171,505,511,691.0,1,0,0,0,0,0,0,0,0,0
2172,506,510,691.0,1,0,0,0,0,0,0,0,0,0
2173,507,510,691.0,1,0,0,0,0,0,0,0,0,0
2174,509,510,691.0,1,0,0,0,0,0,0,0,0,0
2175,511,509,691.0,1,0,0,0,0,0,0,0,0,0
2176,513,508,691.0,1,0,0,0,0,0,0,0,0,0
2177,516,507,691.0,1,0,0,0,0,0,0,0,0,0
2178,518,507,691.0,1,0,0,0,0,0,0,0,0,0
2179,518,506,691.0,1,0,0,0,0,0,0,0,0,0
2180,520,506,691.0,1,0,0,0,0,0,0,0,0,0
2181,522,506,691.0,1,0,0,0,0,0,0,0,0,0
2182,524,506,691.0,1,0,0,0,0,0,0,0,0,0
2183,525,506,691.0,1,0,0,0,0,0,0,0,0,0
2184,525,505,691.0,1,0,0,0,0,0,0,0,0,0
2185,523,505,691.0,1,0,0,0,0,0,0,0,0,0
2186,520,505,690.0,1,0,0,0,0,0,0,0,0,0
2187,518,506,691.0,1,0,0,0,0,0,0,0,0,0
2188,517,505,690.0,1,0,0,0,0,0,0,0,0,0
2189,517,505,690.0,1,0,0,0,0,0,0,0,0,0
2190,515,506,691.0,1,0,0,0,0,0,0,0,0,0
2191,512,507,690.0,1,0,0,0,0,0,0,0,0,0
2192,508,508,690.0,1,0,0,0,0,0,0,0,0,0
2193,505,510,690.0,1,0,0,0,0,0,0,0,0,0
2194,503,511,690.0,1,0,0,0,0,0,0,0,0,0
2195,502,512,690.0,1,0,0,0,0,0,0,0,0,0
2196,501,512,690.0,1,0,0,0,0,0,0,0,0,0
2197,500,512,690.0,1,0,0,0,0,0,0,0,0,0
2198,500,512,690.0,1,0,0,0,0,0,0,0,0,0
2199,501,511,690.0,1,0,0,0,0,0,0,0,0,0
2200,501,510,690.0,1,0,0,0,0,0,0,0,0,0
2201,501,510,690.0,1,0,0,0,0,0,0,0,0,0
2202,502,511,690.0,1,0,0,0,0,0,0,0,0,0
2203,503,511,690.0,1,0,0,0,0,0,0,0,0,0
2204,503,511,690.0,1,0,0,0,0,0,0,0,0,0
2205,503,510,690.0,1,0,0,0,0,0,0,0,0,0
2206,504,511,690.0,1,0,0,0,0,0,0,0,0,0
2207,503,510,690.0,1,0,0,0,0,0,0,0,0,0
2208,501,511,690.0,1,0,0,0,0,0,0,0,0,0
2209,495,512,690.0,1,0,0,0,0,0,0,0,0,0
2210,489,512,690.0,1,0,0,0,0,0,0,0,0,0
2211,491,511,690.0,1,0,0,0,0,0,0,0,0,0
2212,503,508,690.0,1,0,0,0,0,0,0,0,0,0
2213,518,504,690.0,1,0,0,0,0,0,0,0,0,0
2214,539,499,690.0,1,0,0,0,0,0,0,0,0,0
2215,571,496,690.0,1,0,0,0,0,0,0,0,0,0
2216,612,493,690.0,1,0,0,0,0,0,0,0,0,0
2217,658,492,690.0,1,0,0,0,0,0,0,0,0,0
2218,677,493,690.0,1,0,0,0,0,0,0,0,0,0
2219,648,498,690.0,1,0,0,0,0,0,0,0,0,0
2220,605,508,690.0,1,0,0,0,0,0,0,0,0,0
2221,562,516,690.0,1,0,0,0,0,0,0,0,0,0
2222,535,520,690.0,1,0,0,0,0,0,0,0,0,0
2223,511,520,690.0,1,0,0,0,0,0,0,0,0,0
2224,491,519,690.0,1,0,0,0,0,0,0,0,0,0
2225,480,518,690.0,1,0,0,0,0,0,0,0,0,0
2226,475,515,690.0,1,0,0,0,0,0,0,0,0,0
2227,474,512,690.0,1,0,0,0,0,0,0,0,0,0
2228,475,510,690.0,1,0,0,0,0,0,0,0,0,0
2229,478,509,689.0,1,0,0,0,0,0,0,0,0,0
2230,479,510,690.0,1,0,0,0,0,0,0,0,0,0
2231,479,509,689.0,1,0,0,0,0,0,0,0,0,0
2232,480,509,689.0,1,0,0,0,0,0,0,0,0,0
2233,481,510,689.0,1,0,0,0,0,0,0,0,0,0
2234,482,510,689.0,1,0,0,0,0,0,0,0,0,0
2235,482,509,689.0,1,0,0,0,0,0,0,0,0,0
2236,484,509,689.0,1,0,0,0,0,0,0,0,0,0
2237,485,510,689.0,1,0,0,0,0,0,0,0,0,0
2238,487,510,689.0,1,0,0,0,0,0,0,0,0,0
2239,488,510,689.0,1,0,0,0,0,0,0,0,0,0
2240,489,509,689.0,1,0,0,0,0,0,0,0,0,0
2241,490,508,689.0,1,0,0,0,0,0,0,0,0,0
2242,492,508,689.0,1,0,0,0,0,0,0,0,0,0
2243,494,509,689.0,1,0,0,0,0,0,0,0,0,0
2244,495,509,689.0,1,0,0,0,0,0,0,0,0,0
2245,496,509,689.0,1,0,0,0,0,0,0,0,0,0
2246,496,509,689.0,1,0,0,0,0,0,0,0,0,0
2247,498,509,689.0,1,0,0,0,0,0,0,0,0,0
2248,499,508,689.0,1,0,0,0,0,0,0,0,0,0
2249,500,509,689.0,1,0,0,0,0,0,0,0,0,0
2250,500,508,689.0,1,0,0,0,0,0,0,0,0,0
2251,501,508,689.0,1,0,0,0,0,0,0,0,0,0
2252,501,508,689.0,1,0,0,0,0,0,0,0,0,0
2253,502,509,689.0,1,0,0,0,0,0,0,0,0,0
2254,504,509,689.0,1,0,0,0,0,0,0,0,0,0
2255,505,508,689.0,1,0,0,0,0,0,0,0,0,0
2256,507,507,689.0,1,0,0,0,0,0,0,0,0,0
2257,507,507,689.0,1,0,0,0,0,0,0,0,0,0
2258,508,507,689.0,1,0,0,0,0,0,0,0,0,0
2259,508,507,689.0,1,0,0,0,0,0,0,0,0,0
2260,509,508,689.0,1,0,0,0,0,0,0,0,0,0
2261,510,508,689.0,1,0,0,0,0,0,0,0,0,0
2262,512,508,689.0,1,0,0,0,0,0,0,0,0,0
2263,513,507,689.0,1,0,0,0,0,0,0,0,0,0
2264,514,507,689.0,1,0,0,0,0,0,0,0,0,0
2265,515,506,689.0,1,0,0,0,0,0,0,0,0,0
2266,516,506,689.0,1,0,0,0,0,0,0,0,0,0
2267,517,506,689.0,1,0,0,0,0,0,0,0,0,0
2268,518,506,689.0,1,0,0,0,0,0,0,0,0,0
2269,519,506,689.0,1,0,0,0,0,0,0,0,0,0
2270,519,506,689.0,1,0,0,0,0,0,0,0,0,0
2271,520,506,689.0,1,0,0,0,0,0,0,0,0,0
2272,521,506,689.0,1,0,0,0,0,0,0,0,0,0
2273,523,505,689.0,1,0,0,0,0,0,0,0,0,0
2274,524,504,689.0,1,0,0,0,0,0,0,0,0,0
2275,525,504,689.0,1,0,0,0,0,0,0,0,0,0
2276,526,504,689.0,1,0,0,0,0,0,0,0,0,0
2277,527,503,689.0,1,0,0,0,0,0,0,0,0,0
2278,527,504,689.0,1,0,0,0,0,0,0,0,0,0
2279,528,504,689.0,1,0,0,0,0,0,0,0,0,0
2280,529,505,689.0,1,0,0,0,0,0,0,0,0,0
2281,529,505,688.0,1,0,0,0,0,0,0,0,0,0
2282,529,505,688.0,1,0,0,0,0,0,0,0,0,0
2283,529,505,688.0,1,0,0,0,0,0,0,0,0,0
2284,529,505,688.0,1,0,0,0,0,0,0,0,0,0
2285,530,505,688.0,1,0,0,0,0,0,0,0,0,0
2286,530,505,689.0,1,0,0,0,0,0,0,0,0,0
2287,530,505,688.0,1,0,0,0,0,0,0,0,0,0
2288,530,505,688.0,1,0,0,0,0,0,0,0,0,0
2289,528,506,688.0,1,0,0,0,0,0,0,0,0,0
2290,526,506,688.0,1,0,0,0,0,0,0,0,0,0
2291,524,507,688.0,1,0,0,0,0,0,0,0,0,0
2292,521,509,688.0,1,0,0,0,0,0,0,0,0,0
2293,516,509,688.0,1,0,0,0,0,0,0,0,0,0
2294,511,510,688.0,1,0,0,0,0,0,0,0,0,0
2295,507,512,688.0,1,0,0,0,0,0,0,0,0,0
2296,503,513,688.0,1,0,0,0,0,0,0,0,0,0
2297,499,514,688.0,1,0,0,0,0,0,0,0,0,0
2298,496,515,688.0,1,0,0,0,0,0,0,0,0,0
2299,492,515,688.0,1,0,0,0,0,0,0,0,0,0
2300,490,515,688.0,1,0,0,0,0,0,0,0,0,0
2301,488,516,688.0,1,0,0,0,0,0,0,0,0,0
2302,486,517,688.0,1,0,0,0,0,0,0,0,0,0
2303,484,517,688.0,1,0,0,0,0,0,0,0,0,0
2304,483,516,688.0,1,0,0,0,0,0,0,0,0,0
2305,483,516,688.0,1,0,0,0,0,0,0,0,0,0
2306,484,516,688.0,1,0,0,0,0,0,0,0,0,0
2307,484,516,688.0,1,0,0,0,0,0,0,0,0,0
2308,485,516,688.0,1,0,0,0,0,0,0,0,0,0
2309,485,517,688.0,1,0,0,0,0,0,0,0,0,0
2310,486,517,688.0,1,0,0,0,0,0,0,0,0,0
2311,486,517,688.0,1,0,0,0,0,0,0,0,0,0
2312,486,516,688.0,1,0,0,0,0,0,0,0,0,0
2313,488,515,688.0,1,0,0,0,0,0,0,0,0,0
2314,489,515,688.0,1,0,0,0,0,0,0,0,0,0
2315,490,515,688.0,1,0,0,0,0,0,0,0,0,0
2316,493,514,688.0,1,0,0,0,0,0,0,0,0,0
2317,494,513,688.0,1,0,0,0,0,0,0,0,0,0
2318,494,513,688.0,1,0,0,0,0,0,0,0,0,0
2319,494,513,688.0,1,0,0,0,0,0,0,0,0,0
2320,495,513,688.0,1,0,0,0,0,0,0,0,0,0
2321,496,513,688.0,1,0,0,0,0,0,0,0,0,0
2322,497,514,688.0,1,0,0,0,0,0,0,0,0,0
2323,497,514,688.0,1,0,0,0,0,0,0,0,0,0
2324,498,514,688.0,1,0,0,0,0,0,0,0,0,0
2325,499,513,688.0,1,0,0,0,0,0,0,0,0,0
2326,499,512,688.0,1,0,0,0,0,0,0,0,0,0
2327,500,512,688.0,1,0,0,0,0,0,0,0,0,0
2328,501,512,688.0,1,0,0,0,0,0,0,0,0,0
2329,502,512,688.0,1,0,0,0,0,0,0,0,0,0
2330,503,512,688.0,1,0,0,0,0,0,0,0,0,0
2331,504,512,688.0,1,0,0,0,0,0,0,0,0,0
2332,504,513,688.0,1,0,0,0,0,0,0,0,0,0
2333,504,512,688.0,1,0,0,0,0,0,0,0,0,0
2334,505,512,688.0,1,0,0,0,0,0,0,0,0,0
2335,504,512,688.0,1,0,0,0,0,0,0,0,0,0
2336,504,512,688.0,1,0,0,0,0,0,0,0,0,0
2337,504,512,688.0,1,0,0,0,0,0,0,0,0,0
2338,505,512,688.0,1,0,0,0,0,0,0,0,0,0
2339,505,512,688.0,1,0,0,0,0,0,0,0,0,0
2340,504,512,688.0,1,0,0,0,0,0,0,0,0,0
2341,503,512,688.0,1,0,0,0,0,0,0,0,0,0
2342,503,512,688.0,1,0,0,0,0,0,0,0,0,0
2343,503,512,688.0,1,0,0,0,0,0,0,0,0,0
2344,505,512,688.0,1,0,0,0,0,0,0,0,0,0
2345,505,512,688.0,1,0,0,0,0,0,0,0,0,0
2346,506,511,688.0,1,0,0,0,0,0,0,0,0,0
2347,506,512,687.0,1,0,0,0,0,0,0,0,0,0
2348,505,513,688.0,1,0,0,0,0,0,0,0,0,0
2349,505,512,688.0,1,0,0,0,0,0,0,0,0,0
2350,506,512,688.0,1,0,0,0,0,0,0,0,0,0
2351,506,511,688.0,1,0,0,0,0,0,0,0,0,0
2352,506,511,688.0,1,0,0,0,0,0,0,0,0,0
2353,507,511,688.0,1,0,0,0,0,0,0,0,0,0
2354,507,512,688.0,1,0,0,0,0,0,0,0,0,0
2355,506,512,687.0,1,0,0,0,0,0,0,0,0,0
2356,506,511,688.0,1,0,0,0,0,0,0,0,0,0
2357,508,511,687.0,1,0,0,0,0,0,0,0,0,0
2358,509,512,688.0,1,0,0,0,0,0,0,0,0,0
2359,511,513,688.0,1,0,0,0,0,0,0,0,0,0
2360,513,512,688.0,1,0,0,0,0,0,0,0,0,0
2361,517,510,687.0,1,0,0,0,0,0,0,0,0,0
2362,518,510,687.0,1,0,0,0,0,0,0,0,0,0
2363,519,509,688.0,1,0,0,0,0,0,0,0,0,0
2364,521,509,687.0,1,0,0,0,0,0,0,0,0,0
2365,524,509,687.0,1,0,0,0,0,0,0,0,0,0
2366,526,508,687.0,1,0,0,0,0,0,0,0,0,0
2367,526,508,687.0,1,0,0,0,0,0,0,0,0,0
2368,525,508,688.0,1,0,0,0,0,0,0,0,0,0
2369,524,508,688.0,1,0,0,0,0,0,0,0,0,0
2370,521,508,687.0,1,0,0,0,0,0,0,0,0,0
2371,518,509,687.0,1,0,0,0,0,0,0,0,0,0
2372,517,509,687.0,1,0,0,0,0,0,0,0,0,0
2373,516,510,687.0,1,0,0,0,0,0,0,0,0,0
2374,513,509,687.0,1,0,0,0,0,0,0,0,0,0
2375,510,510,687.0,1,0,0,0,0,0,0,0,0,0
2376,507,511,687.0,1,0,0,0,0,0,0,0,0,0
2377,504,511,687.0,1,0,0,0,0,0,0,0,0,0
2378,502,511,687.0,1,0,0,0,0,0,0,0,0,0
2379,501,511,687.0,1,0,0,0,0,0,0,0,0,0
2380,502,512,687.0,1,0,0,0,0,0,0,0,0,0
2381,503,511,687.0,1,0,0,0,0,0,0,0,0,0
2382,503,511,687.0,1,0,0,0,0,0,0,0,0,0
2383,503,512,687.0,1,0,0,0,0,0,0,0,0,0
2384,503,512,687.0,1,0,0,0,0,0,0,0,0,0
2385,503,512,687.0,1,0,0,0,0,0,0,0,0,0
2386,503,512,687.0,1,0,0,0,0,0,0,0,0,0
2387,503,512,687.0,1,0,0,0,0,0,0,0,0,0
2388,505,511,687.0,1,0,0,0,0,0,0,0,0,0
2389,506,512,687.0,1,0,0,0,0,0,0,0,0,0
2390,505,512,687.0,1,0,0,0,0,0,0,0,0,0
2391,504,512,687.0,1,0,0,0,0,0,0,0,0,0
2392,502,512,687.0,1,0,0,0,0,0,0,0,0,0
2393,497,511,687.0,1,0,0,0,0,0,0,0,0,0
2394,493,510,687.0,1,0,0,0,0,0,0,0,0,0
2395,496,510,687.0,1,0,0,0,0,0,0,0,0,0
2396,506,509,687.0,1,0,0,0,0,0,0,0,0,0
2397,523,506,687.0,1,0,0,0,0,0,0,0,0,0
2398,547,503,687.0,1,0,0,0,0,0,0,0,0,0
2399,582,501,687.0,1,0,0,0,0,0,0,0,0,0
2400,625,499,687.0,1,0,0,0,0,0,0,0,0,0
2401,668,498,687.0,1,0,0,0,0,0,0,0,0,0
2402,676,499,687.0,1,0,0,0,0,0,0,0,0,0
2403,630,505,687.0,1,0,0,0,0,0,0,0,0,0
2404,579,512,687.0,1,0,0,0,0,0,0,0,0,0
2405,543,519,687.0,1,0,0,0,0,0,0,0,0,0
2406,527,520,687.0,1,0,0,0,0,0,0,0,0,0
2407,514,517,687.0,1,0,0,0,0,0,0,0,0,0
2408,496,517,687.0,1,0,0,0,0,0,0,0,0,0
2409,480,517,687.0,1,0,0,0,0,0,0,0,0,0
2410,477,515,687.0,1,0,0,0,0,0,0,0,0,0
2411,475,513,687.0,1,0,0,0,0,0,0,0,0,0
2412,475,511,687.0,1,0,0,0,0,0,0,0,0,0
2413,476,510,687.0,1,0,0,0,0,0,0,0,0,0
2414,479,509,687.0,1,0,0,0,0,0,0,0,0,0
2415,482,510,687.0,1,0,0,0,0,0,0,0,0,0
2416,485,509,687.0,1,0,0,0,0,0,0,0,0,0
2417,486,509,687.0,1,0,0,0,0,0,0,0,0,0
2418,488,510,687.0,1,0,0,0,0,0,0,0,0,0
2419,489,509,687.0,1,0,0,0,0,0,0,0,0,0
2420,490,509,687.0,1,0,0,0,0,0,0,0,0,0
2421,491,509,687.0,1,0,0,0,0,0,0,0,0,0
2422,492,509,687.0,1,0,0,0,0,0,0,0,0,0
2423,493,508,687.0,1,0,0,0,0,0,0,0,0,0
2424,493,508,687.0,1,0,0,0,0,0,0,0,0,0
2425,494,507,687.0,1,0,0,0,0,0,0,0,0,0
2426,496,508,687.0,1,0,0,0,0,0,0,0,0,0
2427,498,509,687.0,1,0,0,0,0,0,0,0,0,0
2428,499,509,687.0,1,0,0,0,0,0,0,0,0,0
2429,499,509,687.0,1,0,0,0,0,0,0,0,0,0
2430,500,508,687.0,1,0,0,0,0,0,0,0,0,0
2431,502,508,687.0,1,0,0,0,0,0,0,0,0,0
2432,502,507,687.0,1,0,0,0,0,0,0,0,0,0
2433,503,508,687.0,1,0,0,0,0,0,0,0,0,0
2434,504,508,687.0,1,0,0,0,0,0,0,0,0,0
2435,506,508,687.0,1,0,0,0,0,0,0,0,0,0
2436,506,508,687.0,1,0,0,0,0,0,0,0,0,0
2437,507,508,687.0,1,0,0,0,0,0,0,0,0,0
2438,509,507,686.0,1,0,0,0,0,0,0,0,0,0
2439,511,507,687.0,1,0,0,0,0,0,0,0,0,0
2440,511,508,687.0,1,0,0,0,0,0,0,0,0,0
2441,511,507,687.0,1,0,0,0,0,0,0,0,0,0
2442,512,507,687.0,1,0,0,0,0,0,0,0,0,0
2443,511,507,687.0,1,0,0,0,0,0,0,0,0,0
2444,511,507,687.0,1,0,0,0,0,0,0,0,0,0
2445,513,507,687.0,1,0,0,0,0,0,0,0,0,0
2446,515,507,686.0,1,0,0,0,0,0,0,0,0,0
2447,515,507,687.0,1,0,0,0,0,0,0,0,0,0
2448,517,507,687.0,1,0,0,0,0,0,0,0,0,0
2449,517,507,686.0,1,0,0,0,0,0,0,0,0,0
2450,518,507,686.0,1,0,0,0,0,0,0,0,0,0
2451,520,507,686.0,1,0,0,0,0,0,0,0,0,0
2452,523,505,687.0,1,0,0,0,0,0,0,0,0,0
2453,524,505,687.0,1,0,0,0,0,0,0,0,0,0
2454,525,506,687.0,1,0,0,0,0,0,0,0,0,0
2455,527,507,687.0,1,0,0,0,0,0,0,0,0,0
2456,527,506,686.0,1,0,0,0,0,0,0,0,0,0
2457,528,505,687.0,1,0,0,0,0,0,0,0,0,0
2458,528,504,686.0,1,0,0,0,0,0,0,0,0,0
2459,529,505,687.0,1,0,0,0,0,0,0,0,0,0
2460,531,504,687.0,1,0,0,0,0,0,0,0,0,0
2461,533,504,686.0,1,0,0,0,0,0,0,0,0,0
2462,533,505,686.0,1,0,0,0,0,0,0,0,0,0
2463,534,504,686.0,1,0,0,0,0,0,0,0,0,0
2464,535,504,686.0,1,0,0,0,0,0,0,0,0,0
2465,536,504,686.0,1,0,0,0,0,0,0,0,0,0
2466,536,503,686.0,1,0,0,0,0,0,0,0,0,0
2467,535,504,686.0,1,0,0,0,0,0,0,0,0,0
2468,534,505,686.0,1,0,0,0,0,0,0,0,0,0
2469,533,505,686.0,1,0,0,0,0,0,0,0,0,0
2470,533,505,687.0,1,0,0,0,0,0,0,0,0,0
2471,532,505,686.0,1,0,0,0,0,0,0,0,0,0
2472,531,506,687.0,1,0,0,0,0,0,0,0,0,0
2473,530,506,686.0,1,0,0,0,0,0,0,0,0,0
2474,527,507,686.0,1,0,0,0,0,0,0,0,0,0
2475,523,507,686.0,1,0,0,0,0,0,0,0,0,0
2476,516,508,686.0,1,0,0,0,0,0,0,0,0,0
2477,510,510,686.0,1,0,0,0,0,0,0,0,0,0
2478,506,511,686.0,1,0,0,0,0,0,0,0,0,0
2479,500,513,686.0,1,0,0,0,0,0,0,0,0,0
2480,497,514,686.0,1,0,0,0,0,0,0,0,0,0
2481,493,515,686.0,1,0,0,0,0,0,0,0,0,0
2482,490,515,686.0,1,0,0,0,0,0,0,0,0,0
2483,487,516,686.0,1,0,0,0,0,0,0,0,0,0
2484,483,517,686.0,1,0,0,0,0,0,0,0,0,0
2485,481,517,686.0,1,0,0,0,0,0,0,0,0,0
2486,479,517,686.0,1,0,0,0,0,0,0,0,0,0
2487,476,518,686.0,1,0,0,0,0,0,0,0,0,0
2488,475,518,686.0,1,0,0,0,0,0,0,0,0,0
2489,475,517,686.0,1,0,0,0,0,0,0,0,0,0
2490,476,517,686.0,1,0,0,0,0,0,0,0,0,0
2491,475,517,686.0,1,0,0,0,0,0,0,0,0,0
2492,475,517,686.0,1,0,0,0,0,0,0,0,0,0
2493,477,518,686.0,1,0,0,0,0,0,0,0,0,0
2494,480,518,686.0,1,0,0,0,0,0,0,0,0,0
2495,483,518,686.0,1,0,0,0,0,0,0,0,0,0
2496,484,517,686.0,1,0,0,0,0,0,0,0,0,0
2497,484,517,686.0,1,0,0,0,0,0,0,0,0,0
2498,484,517,686.0,1,0,0,0,0,0,0,0,0,0
2499,485,517,686.0,1,0,0,0,0,0,0,0,0,0
2500,487,517,686.0,1,0,0,0,0,0,0,0,0,0
2501,488,516,686.0,1,0,0,0,0,0,0,0,0,0
2502,489,514,686.0,1,0,0,0,0,0,0,0,0,0
2503,489,515,686.0,1,0,0,0,0,0,0,0,0,0
2504,491,515,686.0,1,0,0,0,0,0,0,0,0,0
2505,494,515,686.0,1,0,0,0,0,0,0,0,0,0
2506,494,515,686.0,1,0,0,0,0,0,0,0,0,0
2507,495,514,686.0,1,0,0,0,0,0,0,0,0,0
2508,496,514,686.0,1,0,0,0,0,0,0,0,0,0
2509,497,514,686.0,1,0,0,0,0,0,0,0,0,0
2510,496,514,686.0,1,0,0,0,0,0,0,0,0,0
2511,496,514,686.0,1,0,0,0,0,0,0,0,0,0
2512,498,513,686.0,1,0,0,0,0,0,0,0,0,0
2513,500,513,686.0,1,0,0,0,0,0,0,0,0,0
2514,501,513,686.0,1,0,0,0,0,0,0,0,0,0
2515,500,512,686.0,1,0,0,0,0,0,0,0,0,0
2516,501,512,686.0,1,0,0,0,0,0,0,0,0,0
2517,500,512,686.0,1,0,0,0,0,0,0,0,0,0
2518,500,511,686.0,1,0,0,0,0,0,0,0,0,0
2519,502,512,686.0,1,0,0,0,0,0,0,0,0,0
2520,502,513,686.0,1,0,0,0,0,0,0,0,0,0
2521,504,513,686.0,1,0,0,0,0,0,0,0,0,0
2522,503,513,686.0,1,0,0,0,0,0,0,0,0,0
2523,502,513,686.0,1,0,0,0,0,0,0,0,0,0
2524,501,513,686.0,1,0,0,0,0,0,0,0,0,0
2525,503,512,686.0,1,0,0,0,0,0,0,0,0,0
2526,505,512,686.0,1,0,0,0,0,0,0,0,0,0
2527,504,512,686.0,1,0,0,0,0,0,0,0,0,0
2528,503,512,686.0,1,0,0,0,0,0,0,0,0,0
2529,504,512,686.0,1,0,0,0,0,0,0,0,0,0
2530,504,513,686.0,1,0,0,0,0,0,0,0,0,0
2531,504,513,686.0,1,0,0,0,0,0,0,0,0,0
2532,504,513,686.0,1,0,0,0,0,0,0,0,0,0
2533,504,512,686.0,1,0,0,0,0,0,0,0,0,0
2534,503,511,686.0,1,0,0,0,0,0,0,0,0,0
2535,504,511,686.0,1,0,0,0,0,0,0,0,0,0
2536,507,511,686.0,1,0,0,0,0,0,0,0,0,0
2537,508,511,686.0,1,0,0,0,0,0,0,0,0,0
2538,510,510,686.0,1,0,0,0,0,0,0,0,0,0
2539,512,510,686.0,1,0,0,0,0,0,0,0,0,0
2540,516,511,686.0,1,0,0,0,0,0,0,0,0,0
2541,517,510,686.0,1,0,0,0,0,0,0,0,0,0
2542,517,510,686.0,1,0,0,0,0,0,0,0,0,0
2543,518,510,686.0,1,0,0,0,0,0,0,0,0,0
2544,520,510,686.0,1,0,0,0,0,0,0,0,0,0
2545,523,510,686.0,1,0,0,0,0,0,0,0,0,0
2546,524,509,686.0,1,0,0,0,0,0,0,0,0,0
2547,522,509,686.0,1,0,0,0,0,0,0,0,0,0
2548,519,509,686.0,1,0,0,0,0,0,0,0,0,0
2549,517,509,686.0,1,0,0,0,0,0,0,0,0,0
2550,516,510,686.0,1,0,0,0,0,0,0,0,0,0
2551,515,511,686.0,1,0,0,0,0,0,0,0,0,0
2552,512,511,686.0,1,0,0,0,0,0,0,0,0,0
2553,508,512,686.0,1,0,0,0,0,0,0,0,0,0
2554,505,512,686.0,1,0,0,0,0,0,0,0,0,0
2555,502,511,686.0,1,0,0,0,0,0,0,0,0,0
2556,501,513,686.0,1,0,0,0,0,0,0,0,0,0
2557,499,514,686.0,1,0,0,0,0,0,0,0,0,0
2558,498,514,686.0,1,0,0,0,0,0,0,0,0,0
2559,499,515,686.0,1,0,0,0,0,0,0,0,0,0
2560,499,514,686.0,1,0,0,0,0,0,0,0,0,0
2561,498,513,686.0,1,0,0,0,0,0,0,0,0,0
2562,497,514,686.0,1,0,0,0,0,0,0,0,0,0
2563,498,514,686.0,1,0,0,0,0,0,0,0,0,0
2564,501,514,686.0,1,0,0,0,0,0,0,0,0,0
2565,501,514,686.0,1,0,0,0,0,0,0,0,0,0
2566,502,514,686.0,1,0,0,0,0,0,0,0,0,0
2567,502,514,686.0,1,0,0,0,0,0,0,0,0,0
2568,502,514,686.0,1,0,0,0,0,0,0,0,0,0
2569,501,514,686.0,1,0,0,0,0,0,0,0,0,0
2570,500,514,686.0,1,0,0,0,0,0,0,0,0,0
2571,497,513,686.0,1,0,0,0,0,0,0,0,0,0
2572,492,512,686.0,1,0,0,0,0,0,0,0,0,0
2573,491,512,686.0,1,0,0,0,0,0,0,0,0,0
2574,498,511,686.0,1,0,0,0,0,0,0,0,0,0
2575,508,509,686.0,1,0,0,0,0,0,0,0,0,0
2576,524,506,686.0,1,0,0,0,0,0,0,0,0,0
2577,554,504,686.0,1,0,0,0,0,0,0,0,0,0
2578,597,503,686.0,1,0,0,0,0,0,0,0,0,0
2579,646,500,686.0,1,0,0,0,0,0,0,0,0,0
2580,686,499,686.0,1,0,0,0,0,0,0,0,0,0
2581,671,502,686.0,1,0,0,0,0,0,0,0,0,0
2582,619,508,686.0,1,0,0,0,0,0,0,0,0,0
2583,564,516,686.0,1,0,0,0,0,0,0,0,0,0
2584,528,520,686.0,1,0,0,0,0,0,0,0,0,0
2585,514,520,686.0,1,0,0,0,0,0,0,0,0,0
2586,504,519,686.0,1,0,0,0,0,0,0,0,0,0
2587,488,518,686.0,1,0,0,0,0,0,0,0,0,0
2588,475,517,686.0,1,0,0,0,0,0,0,0,0,0
2589,473,514,686.0,1,0,0,0,0,0,0,0,0,0
2590,475,514,686.0,1,0,0,0,0,0,0,0,0,0
2591,474,512,686.0,1,0,0,0,0,0,0,0,0,0
2592,473,511,686.0,1,0,0,0,0,0,0,0,0,0
2593,478,511,686.0,1,0,0,0,0,0,0,0,0,0
2594,481,511,686.0,1,0,0,0,0,0,0,0,0,0
2595,481,511,686.0,1,0,0,0,0,0,0,0,0,0
2596,483,511,686.0,1,0,0,0,0,0,0,0,0,0
2597,486,510,686.0,1,0,0,0,0,0,0,0,0,0
2598,488,510,686.0,1,0,0,0,0,0,0,0,0,0
2599,489,510,686.0,1,0,0,0,0,0,0,0,0,0
2600,490,510,686.0,1,0,0,0,0,0,0,0,0,0
2601,491,511,686.0,1,0,0,0,0,0,0,0,0,0
2602,491,511,686.0,1,0,0,0,0,0,0,0,0,0
2603,493,510,686.0,1,0,0,0,0,0,0,0,0,0
2604,494,509,686.0,1,0,0,0,0,0,0,0,0,0
2605,495,508,686.0,1,0,0,0,0,0,0,0,0,0
2606,496,509,686.0,1,0,0,0,0,0,0,0,0,0
2607,496,508,686.0,1,0,0,0,0,0,0,0,0,0
2608,498,507,686.0,1,0,0,0,0,0,0,0,0,0
2609,499,508,686.0,1,0,0,0,0,0,0,0,0,0
2610,501,509,685.0,1,0,0,0,0,0,0,0,0,0
2611,504,509,686.0,1,0,0,0,0,0,0,0,0,0
2612,504,508,685.0,1,0,0,0,0,0,0,0,0,0
2613,502,507,686.0,1,0,0,0,0,0,0,0,0,0
2614,503,508,686.0,1,0,0,0,0,0,0,0,0,0
2615,506,507,686.0,1,0,0,0,0,0,0,0,0,0
2616,507,506,686.0,1,0,0,0,0,0,0,0,0,0
2617,508,507,686.0,1,0,0,0,0,0,0,0,0,0
2618,511,507,686.0,1,0,0,0,0,0,0,0,0,0
2619,512,507,685.0,1,0,0,0,0,0,0,0,0,0
2620,512,507,686.0,1,0,0,0,0,0,0,0,0,0
2621,512,506,685.0,1,0,0,0,0,0,0,0,0,0
2622,511,506,685.0,1,0,0,0,0,0,0,0,0,0
2623,511,507,685.0,1,0,0,0,0,0,0,0,0,0
2624,513,507,685.0,1,0,0,0,0,0,0,0,0,0
2625,516,506,685.0,1,0,0,0,0,0,0,0,0,0
2626,518,506,685.0,1,0,0,0,0,0,0,0,0,0
2627,518,507,685.0,1,0,0,0,0,0,0,0,0,0
2628,519,507,685.0,1,0,0,0,0,0,0,0,0,0
2629,520,507,685.0,1,0,0,0,0,0,0,0,0,0
2630,521,507,685.0,1,0,0,0,0,0,0,0,0,0
2631,523,506,685.0,1,0,0,0,0,0,0,0,0,0
2632,523,506,685.0,1,0,0,0,0,0,0,0,0,0
2633,525,506,685.0,1,0,0,0,0,0,0,0,0,0
2634,526,506,685.0,1,0,0,0,0,0,0,0,0,0
2635,529,505,685.0,1,0,0,0,0,0,0,0,0,0
2636,529,504,685.0,1,0,0,0,0,0,0,0,0,0
2637,532,504,685.0,1,0,0,0,0,0,0,0,0,0
2638,534,505,685.0,1,0,0,0,0,0,0,0,0,0
2639,532,505,685.0,1,0,0,0,0,0,0,0,0,0
2640,532,505,685.0,1,0,0,0,0,0,0,0,0,0
2641,535,504,685.0,1,0,0,0,0,0,0,0,0,0
2642,539,503,685.0,1,0,0,0,0,0,0,0,0,0
2643,540,504,685.0,1,0,0,0,0,0,0,0,0,0
2644,538,504,685.0,1,0,0,0,0,0,0,0,0,0
2645,537,505,685.0,1,0,0,0,0,0,0,0,0,0
2646,537,504,685.0,1,0,0,0,0,0,0,0,0,0
2647,538,504,685.0,1,0,0,0,0,0,0,0,0,0
2648,535,505,685.0,1,0,0,0,0,0,0,0,0,0
2649,534,506,685.0,1,0,0,0,0,0,0,0,0,0
2650,535,505,685.0,1,0,0,0,0,0,0,0,0,0
2651,531,506,685.0,1,0,0,0,0,0,0,0,0,0
2652,526,508,685.0,1,0,0,0,0,0,0,0,0,0
2653,521,509,685.0,1,0,0,0,0,0,0,0,0,0
2654,517,510,685.0,1,0,0,0,0,0,0,0,0,0
2655,514,510,685.0,1,0,0,0,0,0,0,0,0,0
2656,511,511,685.0,1,0,0,0,0,0,0,0,0,0
2657,504,512,685.0,1,0,0,0,0,0,0,0,0,0
2658,497,513,685.0,1,0,0,0,0,0,0,0,0,0
2659,489,514,685.0,1,0,0,0,0,0,0,0,0,0
2660,486,514,685.0,1,0,0,0,0,0,0,0,0,0
2661,485,514,685.0,1,0,0,0,0,0,0,0,0,0
2662,482,515,685.0,1,0,0,0,0,0,0,0,0,0
2663,480,516,685.0,1,0,0,0,0,0,0,0,0,0
2664,478,517,685.0,1,0,0,0,0,0,0,0,0,0
2665,477,516,685.0,1,0,0,0,0,0,0,0,0,0
2666,477,516,685.0,1,0,0,0,0,0,0,0,0,0
2667,475,517,685.0,1,0,0,0,0,0,0,0,0,0
2668,474,516,685.0,1,0,0,0,0,0,0,0,0,0
2669,477,516,685.0,1,0,0,0,0,0,0,0,0,0
2670,476,517,685.0,1,0,0,0,0,0,0,0,0,0
2671,478,517,685.0,1,0,0,0,0,0,0,0,0,0
2672,480,515,685.0,1,0,0,0,0,0,0,0,0,0
2673,480,514,685.0,1,0,0,0,0,0,0,0,0,0
2674,481,515,685.0,1,0,0,0,0,0,0,0,0,0
2675,484,514,685.0,1,0,0,0,0,0,0,0,0,0
2676,486,514,685.0,1,0,0,0,0,0,0,0,0,0
2677,487,514,685.0,1,0,0,0,0,0,0,0,0,0
2678,488,514,685.0,1,0,0,0,0,0,0,0,0,0
2679,490,514,685.0,1,0,0,0,0,0,0,0,0,0
2680,490,514,685.0,1,0,0,0,0,0,0,0,0,0
2681,492,513,684.0,1,0,0,0,0,0,0,0,0,0
2682,492,513,685.0,1,0,0,0,0,0,0,0,0,0
2683,492,513,685.0,1,0,0,0,0,0,0,0,0,0
2684,493,512,685.0,1,0,0,0,0,0,0,0,0,0
2685,494,511,684.0,1,0,0,0,0,0,0,0,0,0
2686,496,511,684.0,1,0,0,0,0,0,0,0,0,0
2687,498,511,684.0,1,0,0,0,0,0,0,0,0,0
2688,499,511,684.0,1,0,0,0,0,0,0,0,0,0
2689,502,512,684.0,1,0,0,0,0,0,0,0,0,0
2690,503,512,684.0,1,0,0,0,0,0,0,0,0,0
2691,502,510,684.0,1,0,0,0,0,0,0,0,0,0
2692,503,511,684.0,1,0,0,0,0,0,0,0,0,0
2693,502,511,684.0,1,0,0,0,0,0,0,0,0,0
2694,501,512,684.0,1,0,0,0,0,0,0,0,0,0
2695,503,512,684.0,1,0,0,0,0,0,0,0,0,0
2696,504,511,684.0,1,0,0,0,0,0,0,0,0,0
2697,504,510,684.0,1,0,0,0,0,0,0,0,0,0
2698,504,510,684.0,1,0,0,0,0,0,0,0,0,0
2699,505,511,684.0,1,0,0,0,0,0,0,0,0,0
2700,506,511,684.0,1,0,0,0,0,0,0,0,0,0
2701,506,511,684.0,1,0,0,0,0,0,0,0,0,0
2702,505,511,684.0,1,0,0,0,0,0,0,0,0,0
2703,504,512,684.0,1,0,0,0,0,0,0,0,0,0
2704,504,511,684.0,1,0,0,0,0,0,0,0,0,0
2705,506,510,684.0,1,0,0,0,0,0,0,0,0,0
2706,507,510,684.0,1,0,0,0,0,0,0,0,0,0
2707,507,511,684.0,1,0,0,0,0,0,0,0,0,0
2708,507,511,684.0,1,0,0,0,0,0,0,0,0,0
2709,506,510,684.0,1,0,0,0,0,0,0,0,0,0
2710,507,509,684.0,1,0,0,0,0,0,0,0,0,0
2711,507,510,684.0,1,0,0,0,0,0,0,0,0,0
2712,506,509,684.0,1,0,0,0,0,0,0,0,0,0
2713,506,510,684.0,1,0,0,0,0,0,0,0,0,0
2714,506,510,684.0,1,0,0,0,0,0,0,0,0,0
2715,508,509,684.0,1,0,0,0,0,0,0,0,0,0
2716,514,510,684.0,1,0,0,0,0,0,0,0,0,0
2717,518,509,684.0,1,0,0,0,0,0,0,0,0,0
2718,520,508,684.0,1,0,0,0,0,0,0,0,0,0
2719,522,507,684.0,1,0,0,0,0,0,0,0,0,0
2720,523,506,684.0,1,0,0,0,0,0,0,0,0,0
2721,521,505,684.0,1,0,0,0,0,0,0,0,0,0
2722,523,506,684.0,1,0,0,0,0,0,0,0,0,0
2723,521,506,684.0,1,0,0,0,0,0,0,0,0,0
2724,519,507,684.0,1,0,0,0,0,0,0,0,0,0
2725,519,506,684.0,1,0,0,0,0,0,0,0,0,0
2726,518,507,684.0,1,0,0,0,0,0,0,0,0,0
2727,517,507,684.0,1,0,0,0,0,0,0,0,0,0
2728,516,508,684.0,1,0,0,0,0,0,0,0,0,0
2729,510,509,684.0,1,0,0,0,0,0,0,0,0,0
2730,507,510,684.0,1,0,0,0,0,0,0,0,0,0
2731,505,509,683.0,1,0,0,0,0,0,0,0,0,0
2732,503,510,683.0,1,0,0,0,0,0,0,0,0,0
2733,501,511,684.0,1,0,0,0,0,0,0,0,0,0
2734,504,513,683.0,1,0,0,0,0,0,0,0,0,0
2735,503,513,683.0,1,0,0,0,0,0,0,0,0,0
2736,501,512,683.0,1,0,0,0,0,0,0,0,0,0
2737,501,513,683.0,1,0,0,0,0,0,0,0,0,0
2738,503,512,683.0,1,0,0,0,0,0,0,0,0,0
2739,503,511,683.0,1,0,0,0,0,0,0,0,0,0
2740,502,511,683.0,1,0,0,0,0,0,0,0,0,0
2741,503,511,683.0,1,0,0,0,0,0,0,0,0,0
2742,504,511,683.0,1,0,0,0,0,0,0,0,0,0
2743,504,511,683.0,1,0,0,0,0,0,0,0,0,0
2744,507,511,683.0,1,0,0,0,0,0,0,0,0,0
2745,504,512,683.0,1,0,0,0,0,0,0,0,0,0
2746,502,512,683.0,1,0,0,0,0,0,0,0,0,0
2747,499,511,683.0,1,0,0,0,0,0,0,0,0,0
2748,498,510,683.0,1,0,0,0,0,0,0,0,0,0
2749,494,510,683.0,1,0,0,0,0,0,0,0,0,0
2750,496,511,683.0,1,0,0,0,0,0,0,0,0,0
2751,503,509,683.0,1,0,0,0,0,0,0,0,0,0
2752,516,506,683.0,1,0,0,0,0,0,0,0,0,0
2753,540,503,683.0,1,0,0,0,0,0,0,0,0,0
2754,583,502,683.0,1,0,0,0,0,0,0,0,0,0
2755,639,499,683.0,1,0,0,0,0,0,0,0,0,0
2756,689,499,683.0,1,0,0,0,0,0,0,0,0,0
2757,695,500,683.0,1,0,0,0,0,0,0,0,0,0
2758,648,506,683.0,1,0,0,0,0,0,0,0,0,0
2759,591,512,683.0,1,0,0,0,0,0,0,0,0,0
2760,546,517,683.0,1,0,0,0,0,0,0,0,0,0
2761,522,517,683.0,1,0,0,0,0,0,0,0,0,0
2762,506,516,683.0,1,0,0,0,0,0,0,0,0,0
2763,490,516,683.0,1,0,0,0,0,0,0,0,0,0
2764,475,515,683.0,1,0,0,0,0,0,0,0,0,0
2765,472,514,683.0,1,0,0,0,0,0,0,0,0,0
2766,474,513,683.0,1,0,0,0,0,0,0,0,0,0
2767,474,512,683.0,1,0,0,0,0,0,0,0,0,0
2768,474,511,683.0,1,0,0,0,0,0,0,0,0,0
2769,476,510,682.0,1,0,0,0,0,0,0,0,0,0
2770,479,511,682.0,1,0,0,0,0,0,0,0,0,0
2771,480,510,682.0,1,0,0,0,0,0,0,0,0,0
2772,484,510,682.0,1,0,0,0,0,0,0,0,0,0
2773,485,509,682.0,1,0,0,0,0,0,0,0,0,0
2774,484,507,682.0,1,0,0,0,0,0,0,0,0,0
2775,485,508,682.0,1,0,0,0,0,0,0,0,0,0
2776,491,510,682.0,1,0,0,0,0,0,0,0,0,0
2777,492,510,682.0,1,0,0,0,0,0,0,0,0,0
2778,494,510,682.0,1,0,0,0,0,0,0,0,0,0
2779,495,509,682.0,1,0,0,0,0,0,0,0,0,0
2780,493,509,682.0,1,0,0,0,0,0,0,0,0,0
2781,495,509,682.0,1,0,0,0,0,0,0,0,0,0
2782,499,509,682.0,1,0,0,0,0,0,0,0,0,0
2783,499,508,682.0,1,0,0,0,0,0,0,0,0,0
2784,499,508,682.0,1,0,0,0,0,0,0,0,0,0
2785,500,509,682.0,1,0,0,0,0,0,0,0,0,0
2786,503,509,682.0,1,0,0,0,0,0,0,0,0,0
2787,504,509,682.0,1,0,0,0,0,0,0,0,0,0
2788,505,510,682.0,1,0,0,0,0,0,0,0,0,0
2789,505,509,682.0,1,0,0,0,0,0,0,0,0,0
2790,504,510,682.0,1,0,0,0,0,0,0,0,0,0
2791,504,510,682.0,1,0,0,0,0,0,0,0,0,0
2792,506,510,682.0,1,0,0,0,0,0,0,0,0,0
2793,508,509,682.0,1,0,0,0,0,0,0,0,0,0
2794,508,508,682.0,1,0,0,0,0,0,0,0,0,0
2795,510,508,682.0,1,0,0,0,0,0,0,0,0,0
2796,513,506,681.0,1,0,0,0,0,0,0,0,0,0
2797,514,506,681.0,1,0,0,0,0,0,0,0,0,0
2798,515,507,681.0,1,0,0,0,0,0,0,0,0,0
2799,516,508,681.0,1,0,0,0,0,0,0,0,0,0
2800,515,507,681.0,1,0,0,0,0,0,0,0,0,0
2801,515,507,681.0,1,0,0,0,0,0,0,0,0,0
2802,517,506,681.0,1,0,0,0,0,0,0,0,0,0
2803,519,506,681.0,1,0,0,0,0,0,0,0,0,0
2804,521,506,681.0,1,0,0,0,0,0,0,0,0,0
2805,521,506,681.0,1,0,0,0,0,0,0,0,0,0
2806,522,507,681.0,1,0,0,0,0,0,0,0,0,0
2807,523,506,681.0,1,0,0,0,0,0,0,0,0,0
2808,526,505,681.0,1,0,0,0,0,0,0,0,0,0
2809,527,504,681.0,1,0,0,0,0,0,0,0,0,0
2810,530,505,681.0,1,0,0,0,0,0,0,0,0,0
2811,529,505,681.0,1,0,0,0,0,0,0,0,0,0
2812,529,505,681.0,1,0,0,0,0,0,0,0,0,0
2813,533,506,681.0,1,0,0,0,0,0,0,0,0,0
2814,535,506,681.0,1,0,0,0,0,0,0,0,0,0
2815,536,505,681.0,1,0,0,0,0,0,0,0,0,0
2816,534,505,681.0,1,0,0,0,0,0,0,0,0,0
2817,536,504,681.0,1,0,0,0,0,0,0,0,0,0
2818,538,504,681.0,1,0,0,0,0,0,0,0,0,0
2819,539,505,681.0,1,0,0,0,0,0,0,0,0,0
2820,540,506,681.0,1,0,0,0,0,0,0,0,0,0
2821,542,505,681.0,1,0,0,0,0,0,0,0,0,0
2822,540,504,681.0,1,0,0,0,0,0,0,0,0,0
2823,538,505,681.0,1,0,0,0,0,0,0,0,0,0
2824,537,506,681.0,1,0,0,0,0,0,0,0,0,0
2825,535,506,681.0,1,0,0,0,0,0,0,0,0,0
2826,532,506,681.0,1,0,0,0,0,0,0,0,0,0
2827,531,507,681.0,1,0,0,0,0,0,0,0,0,0
2828,530,508,681.0,1,0,0,0,0,0,0,0,0,0
2829,525,510,681.0,1,0,0,0,0,0,0,0,0,0
2830,519,511,680.0,1,0,0,0,0,0,0,0,0,0
2831,514,511,681.0,1,0,0,0,0,0,0,0,0,0
2832,507,511,680.0,1,0,0,0,0,0,0,0,0,0
2833,502,510,680.0,1,0,0,0,0,0,0,0,0,0
2834,495,512,680.0,1,0,0,0,0,0,0,0,0,0
2835,489,514,680.0,1,0,0,0,0,0,0,0,0,0
2836,486,514,680.0,1,0,0,0,0,0,0,0,0,0
2837,483,515,680.0,1,0,0,0,0,0,0,0,0,0
2838,479,515,680.0,1,0,0,0,0,0,0,0,0,0
2839,477,514,680.0,1,0,0,0,0,0,0,0,0,0
2840,477,515,680.0,1,0,0,0,0,0,0,0,0,0
2841,476,515,680.0,1,0,0,0,0,0,0,0,0,0
2842,474,516,680.0,1,0,0,0,0,0,0,0,0,0
2843,474,517,680.0,1,0,0,0,0,0,0,0,0,0
2844,474,516,680.0,1,0,0,0,0,0,0,0,0,0
2845,474,514,680.0,1,0,0,0,0,0,0,0,0,0
2846,475,514,680.0,1,0,0,0,0,0,0,0,0,0
2847,476,515,680.0,1,0,0,0,0,0,0,0,0,0
2848,476,515,680.0,1,0,0,0,0,0,0,0,0,0
2849,478,515,680.0,1,0,0,0,0,0,0,0,0,0
2850,479,515,680.0,1,0,0,0,0,0,0,0,0,0
2851,481,515,680.0,1,0,0,0,0,0,0,0,0,0
2852,483,515,680.0,1,0,0,0,0,0,0,0,0,0
2853,484,515,680.0,1,0,0,0,0,0,0,0,0,0
2854,486,514,680.0,1,0,0,0,0,0,0,0,0,0
2855,487,512,680.0,1,0,0,0,0,0,0,0,0,0
2856,484,512,679.0,1,0,0,0,0,0,0,0,0,0
2857,484,513,680.0,1,0,0,0,0,0,0,0,0,0
2858,488,513,679.0,1,0,0,0,0,0,0,0,0,0
2859,492,512,680.0,1,0,0,0,0,0,0,0,0,0
2860,494,513,679.0,1,0,0,0,0,0,0,0,0,0
2861,494,513,680.0,1,0,0,0,0,0,0,0,0,0
2862,495,513,679.0,1,0,0,0,0,0,0,0,0,0
2863,495,512,679.0,1,0,0,0,0,0,0,0,0,0
2864,497,512,679.0,1,0,0,0,0,0,0,0,0,0
2865,497,512,679.0,1,0,0,0,0,0,0,0,0,0
2866,498,512,679.0,1,0,0,0,0,0,0,0,0,0
2867,500,512,679.0,1,0,0,0,0,0,0,0,0,0
2868,501,512,679.0,1,0,0,0,0,0,0,0,0,0
2869,501,512,679.0,1,0,0,0,0,0,0,0,0,0
2870,501,511,679.0,1,0,0,0,0,0,0,0,0,0
2871,501,512,679.0,1,0,0,0,0,0,0,0,0,0
2872,502,512,679.0,1,0,0,0,0,0,0,0,0,0
2873,504,511,679.0,1,0,0,0,0,0,0,0,0,0
2874,504,510,679.0,1,0,0,0,0,0,0,0,0,0
2875,505,510,679.0,1,0,0,0,0,0,0,0,0,0
2876,507,512,679.0,1,0,0,0,0,0,0,0,0,0
2877,507,512,679.0,1,0,0,0,0,0,0,0,0,0
2878,506,512,679.0,1,0,0,0,0,0,0,0,0,0
2879,506,511,679.0,1,0,0,0,0,0,0,0,0,0
2880,506,511,679.0,1,0,0,0,0,0,0,0,0,0
2881,506,512,679.0,1,0,0,0,0,0,0,0,0,0
2882,506,513,679.0,1,0,0,0,0,0,0,0,0,0
2883,506,512,679.0,1,0,0,0,0,0,0,0,0,0
2884,505,512,679.0,1,0,0,0,0,0,0,0,0,0
2885,504,512,679.0,1,0,0,0,0,0,0,0,0,0
2886,506,511,679.0,1,0,0,0,0,0,0,0,0,0
2887,508,512,679.0,1,0,0,0,0,0,0,0,0,0
2888,507,512,679.0,1,0,0,0,0,0,0,0,0,0
2889,507,512,679.0,1,0,0,0,0,0,0,0,0,0
2890,505,513,679.0,1,0,0,0,0,0,0,0,0,0
2891,505,513,679.0,1,0,0,0,0,0,0,0,0,0
2892,507,512,679.0,1,0,0,0,0,0,0,0,0,0
2893,509,512,679.0,1,0,0,0,0,0,0,0,0,0
2894,510,512,679.0,1,0,0,0,0,0,0,0,0,0
2895,512,511,679.0,1,0,0,0,0,0,0,0,0,0
2896,513,509,679.0,1,0,0,0,0,0,0,0,0,0
2897,514,510,679.0,1,0,0,0,0,0,0,0,0,0
2898,517,511,679.0,1,0,0,0,0,0,0,0,0,0
2899,520,511,679.0,1,0,0,0,0,0,0,0,0,0
2900,521,510,679.0,1,0,0,0,0,0,0,0,0,0
2901,521,510,679.0,1,0,0,0,0,0,0,0,0,0
2902,521,509,678.0,1,0,0,0,0,0,0,0,0,0
2903,521,508,679.0,1,0,0,0,0,0,0,0,0,0
2904,524,508,679.0,1,0,0,0,0,0,0,0,0,0
2905,524,510,678.0,1,0,0,0,0,0,0,0,0,0
2906,521,512,678.0,1,0,0,0,0,0,0,0,0,0
2907,517,512,679.0,1,0,0,0,0,0,0,0,0,0
2908,515,510,678.0,1,0,0,0,0,0,0,0,0,0
2909,515,508,678.0,1,0,0,0,0,0,0,0,0,0
2910,514,508,678.0,1,0,0,0,0,0,0,0,0,0
2911,512,509,678.0,1,0,0,0,0,0,0,0,0,0
2912,508,510,678.0,1,0,0,0,0,0,0,0,0,0
2913,505,511,678.0,1,0,0,0,0,0,0,0,0,0
2914,501,513,678.0,1,0,0,0,0,0,0,0,0,0
2915,498,514,678.0,1,0,0,0,0,0,0,0,0,0
2916,497,514,678.0,1,0,0,0,0,0,0,0,0,0
2917,499,514,678.0,1,0,0,0,0,0,0,0,0,0
2918,502,514,678.0,1,0,0,0,0,0,0,0,0,0
2919,501,514,678.0,1,0,0,0,0,0,0,0,0,0
2920,500,513,678.0,1,0,0,0,0,0,0,0,0,0
2921,502,513,678.0,1,0,0,0,0,0,0,0,0,0
2922,502,513,678.0,1,0,0,0,0,0,0,0,0,0
2923,504,513,678.0,1,0,0,0,0,0,0,0,0,0
2924,505,513,678.0,1,0,0,0,0,0,0,0,0,0
2925,503,513,678.0,1,0,0,0,0,0,0,0,0,0
2926,501,514,678.0,1,0,0,0,0,0,0,0,0,0
2927,501,513,678.0,1,0,0,0,0,0,0,0,0,0
2928,500,511,678.0,1,0,0,0,0,0,0,0,0,0
2929,494,511,678.0,1,0,0,0,0,0,0,0,0,0
2930,487,512,678.0,1,0,0,0,0,0,0,0,0,0
2931,490,512,678.0,1,0,0,0,0,0,0,0,0,0
2932,500,510,678.0,1,0,0,0,0,0,0,0,0,0
2933,512,508,678.0,1,0,0,0,0,0,0,0,0,0
2934,536,505,678.0,1,0,0,0,0,0,0,0,0,0
2935,578,502,678.0,1,0,0,0,0,0,0,0,0,0
2936,635,500,678.0,1,0,0,0,0,0,0,0,0,0
2937,691,499,678.0,1,0,0,0,0,0,0,0,0,0
2938,710,501,678.0,1,0,0,0,0,0,0,0,0,0
2939,668,506,678.0,1,0,0,0,0,0,0,0,0,0
2940,612,512,678.0,1,0,0,0,0,0,0,0,0,0
2941,558,517,678.0,1,0,0,0,0,0,0,0,0,0
2942,525,519,678.0,1,0,0,0,0,0,0,0,0,0
2943,504,518,678.0,1,0,0,0,0,0,0,0,0,0
2944,488,518,678.0,1,0,0,0,0,0,0,0,0,0
2945,475,517,678.0,1,0,0,0,0,0,0,0,0,0
2946,470,515,678.0,1,0,0,0,0,0,0,0,0,0
2947,468,514,677.0,1,0,0,0,0,0,0,0,0,0
2948,467,513,678.0,1,0,0,0,0,0,0,0,0,0
2949,470,513,677.0,1,0,0,0,0,0,0,0,0,0
